MIN=0	-1	-3	0	0	-2
MAX=60	1	3	1	1	2
SCALE=60	0.5	1	0.5	0.5	1
DEC=2	3	3	0	0	2
DEF="Time" t / s	"Current" I_A1 / A	"Voltage" U_B1 / V	"Relay" R_1	"Voltage source" S_1	"Magnetic Flux" &F / Vs
24.65	-0.0635	0.099	1	1	-0.14415
24.7	-0.0555	0.1425	1	1	-0.1381125
24.75	-0.0465	0.1665	1	1	-0.1303875
24.8	-0.038	0.186	1	1	-0.121575
24.85	-0.029	0.2055	1	1	-0.1117875
24.9	-0.0205	0.2295	1	1	-0.1009125
24.95	-0.0115	0.255	1	1	-0.0888
25	-0.003	0.285	1	1	-0.0753
25.05	0.005	0.321	1	1	-0.06015
25.1	0.0135	0.3645	1	1	-0.0430125
25.15	0.0215	0.4155	1	1	-0.0235125
25.2	0.0295	0.4785	1	1	-0.0011625
25.25	0.0375	0.5595	1	1	0.0247875
25.3	0.045	0.6495	1	1	0.0550125
25.35	0.053	0.7125	1	1	0.0890625
25.4	0.062	0.6915	1	1	0.1241625
25.45	0.0675	0.0315	1	1	0.1422375
25.5	0.062	-0.123	1	1	0.13995
25.55	0.053	-0.153	1	1	0.13305
25.6	0.0445	-0.174	1	1	0.124875
25.65	0.0355	-0.1935	1	1	0.1156875
25.7	0.027	-0.213	1	1	0.105525
25.75	0.018	-0.237	1	1	0.094275
25.8	0.0095	-0.2625	1	1	0.0817875
25.85	0.001	-0.294	1	1	0.067875
25.9	-0.007	-0.33	1	1	0.052275
25.95	-0.0155	-0.3735	1	1	0.0346875
26	-0.024	-0.426	1	1	0.0147
26.05	-0.0315	-0.492	1	1	-0.00825
26.1	-0.0395	-0.5745	1	1	-0.0349125
26.15	-0.047	-0.666	1	1	-0.065925
26.2	-0.055	-0.7335	1	1	-0.1009125
26.25	-0.064	-0.489	1	1	-0.131475
26.3	-0.066	0.0585	1	1	-0.1422375
26.35	-0.058	0.1335	1	1	-0.1374375
26.4	-0.0495	0.159	1	1	-0.130125
26.45	-0.0405	0.1785	1	1	-0.1216875
26.5	-0.032	0.1995	1	1	-0.1122375
26.55	-0.0235	0.222	1	1	-0.1017
26.6	-0.0145	0.246	1	1	-0.09
26.65	-0.006	0.2745	1	1	-0.0769875
26.7	0.0025	0.309	1	1	-0.0624
26.75	0.0105	0.348	1	1	-0.045975
26.8	0.019	0.3975	1	1	-0.0273375
26.85	0.027	0.4575	1	1	-0.0059625
26.9	0.035	0.531	1	1	0.01875
26.95	0.0425	0.6195	1	1	0.0475125
27	0.05	0.699	1	1	0.080475
27.05	0.059	0.708	1	1	0.11565
27.1	0.067	0.2115	1	1	0.1386375
27.15	0.0645	-0.105	1	1	0.1413
27.2	0.056	-0.1455	1	1	0.1350375
27.25	0.0475	-0.1665	1	1	0.1272375
27.3	0.0385	-0.186	1	1	0.118425
27.35	0.03	-0.207	1	1	0.1086
27.4	0.021	-0.2295	1	1	0.0976875
27.45	0.0125	-0.2535	1	1	0.0856125
27.5	0.0035	-0.2835	1	1	0.0721875
27.55	-0.0045	-0.318	1	1	0.05715
27.6	-0.013	-0.36	1	1	0.0402
27.65	-0.021	-0.408	1	1	0.021
27.699	-0.029	-0.468	1	1	-0.000462
27.75	-0.037	-0.546	1	1	-0.026319
27.8	-0.0445	-0.636	1	1	-0.055869
27.85	-0.052	-0.717	1	1	-0.089694
27.9	-0.061	-0.729	1	1	-0.125844
27.95	-0.0665	-0.0585	1	1	-0.1455315
28	-0.061	0.12	1	1	-0.143994
28.05	-0.0525	0.1515	1	1	-0.1372065
28.1	-0.0435	0.1725	1	1	-0.1291065
28.15	-0.035	0.192	1	1	-0.119994
28.2	-0.026	0.213	1	1	-0.109869
28.25	-0.0175	0.2385	1	1	-0.0985815
28.3	-0.0085	0.2655	1	1	-0.0859815
28.35	0	0.297	1	1	-0.071919
28.4	0.008	0.3345	1	1	-0.0561315
28.45	0.0165	0.3795	1	1	-0.0382815
28.5	0.0245	0.435	1	1	-0.017919
28.55	0.0325	0.5025	1	1	0.0055185
28.6	0.04	0.588	1	1	0.032781
28.65	0.0475	0.675	1	1	0.064356
28.7	0.056	0.7155	1	1	0.0991185
28.749	0.0655	0.447	1	1	0.12759975
28.8	0.067	-0.069	1	1	0.13723875
28.849	0.059	-0.135	1	1	0.13224075
28.899	0.0505	-0.1605	1	1	0.12485325
28.949	0.0415	-0.1785	1	1	0.11637825
29	0.0325	-0.201	1	1	0.106701
29.049	0.024	-0.222	1	1	0.0963375
29.099	0.015	-0.2445	1	1	0.084675
29.15	0.0065	-0.2715	1	1	0.071517
29.199	-0.0015	-0.3045	1	1	0.057405
29.25	-0.01	-0.3435	1	1	0.040881
29.3	-0.0185	-0.39	1	1	0.0225435
29.349	-0.0265	-0.447	1	1	0.002037
29.399	-0.0345	-0.5175	1	1	-0.0220755
29.45	-0.042	-0.6045	1	1	-0.0506865
29.5	-0.0495	-0.693	1	1	-0.083124
29.549	-0.0575	-0.738	1	1	-0.1181835
29.599	-0.0655	-0.2445	1	1	-0.142746
29.649	-0.0635	0.1005	1	1	-0.146346
29.699	-0.0555	0.1425	1	1	-0.140271
29.75	-0.0465	0.1665	1	1	-0.1323915
29.799	-0.038	0.186	1	1	-0.12375525
29.849	-0.029	0.207	1	1	-0.11393025
29.9	-0.02	0.2295	1	1	-0.1027995
29.95	-0.0115	0.255	1	1	-0.090687
29.999	-0.003	0.285	1	1	-0.077457
30.049	0.005	0.321	1	1	-0.062307
30.099	0.0135	0.3645	1	1	-0.0451695
30.149	0.022	0.417	1	1	-0.025632
30.199	0.0295	0.48	1	1	-0.003207
30.249	0.0375	0.5595	1	1	0.0227805
30.299	0.045	0.6495	1	1	0.0530055
30.349	0.053	0.711	1	1	0.087018
30.399	0.0625	0.6885	1	1	0.1220055
30.449	0.0675	0.03	1	1	0.139968
30.499	0.062	-0.1215	1	1	0.1376805
30.549	0.053	-0.153	1	1	0.130818
30.599	0.0445	-0.1725	1	1	0.1226805
30.649	0.0355	-0.192	1	1	0.113568
30.699	0.027	-0.213	1	1	0.103443
30.749	0.018	-0.237	1	1	0.092193
30.799	0.0095	-0.2625	1	1	0.0797055
30.849	0.001	-0.2925	1	1	0.0658305
30.899	-0.0075	-0.33	1	1	0.050268
30.949	-0.0155	-0.3735	1	1	0.0326805
30.999	-0.024	-0.426	1	1	0.012693
31.049	-0.032	-0.492	1	1	-0.010257
31.099	-0.0395	-0.5745	1	1	-0.0369195
31.149	-0.047	-0.6645	1	1	-0.0678945
31.199	-0.055	-0.7305	1	1	-0.1027695
31.249	-0.064	-0.4845	1	1	-0.1331445
31.299	-0.066	0.06	1	1	-0.143757
31.349	-0.058	0.1335	1	1	-0.1389195
31.399	-0.0495	0.1605	1	1	-0.1315695
31.449	-0.041	0.18	1	1	-0.123057
31.499	-0.032	0.201	1	1	-0.113532
31.549	-0.0235	0.222	1	1	-0.102957
31.599	-0.0145	0.246	1	1	-0.091257
31.649	-0.0055	0.2745	1	1	-0.0782445
31.699	0.0025	0.309	1	1	-0.063657
31.749	0.011	0.3495	1	1	-0.0471945
31.799	0.019	0.3975	1	1	-0.0285195
31.849	0.027	0.459	1	1	-0.007107
31.899	0.035	0.531	1	1	0.017643
31.949	0.0425	0.6195	1	1	0.0464055
31.999	0.05	0.6975	1	1	0.0793305
32.049	0.059	0.705	1	1	0.114393
32.099	0.067	0.2085	1	1	0.1372305
32.149	0.0645	-0.105	1	1	0.139818
32.199	0.056	-0.144	1	1	0.133593
32.249	0.0475	-0.1665	1	1	0.1258305
32.299	0.0385	-0.1845	1	1	0.1170555
32.349	0.03	-0.2055	1	1	0.1073055
32.399	0.021	-0.228	1	1	0.096468
32.449	0.0125	-0.2535	1	1	0.0844305
32.499	0.0035	-0.282	1	1	0.071043
32.549	-0.0045	-0.3165	1	1	0.0560805
32.599	-0.013	-0.357	1	1	0.039243
32.649	-0.0215	-0.4065	1	1	0.0201555
32.699	-0.029	-0.468	1	1	-0.001707
32.749	-0.037	-0.5445	1	1	-0.0270195
32.799	-0.0445	-0.6345	1	1	-0.0564945
32.849	-0.052	-0.7185	1	1	-0.0903195
32.899	-0.061	-0.726	1	1	-0.126432
32.949	-0.0665	-0.054	1	1	-0.145932
32.999	-0.061	0.1215	1	1	-0.1442445
33.049	-0.0525	0.153	1	1	-0.137382
33.099	-0.0435	0.1725	1	1	-0.1292445
33.149	-0.035	0.1935	1	1	-0.1200945
33.199	-0.026	0.216	1	1	-0.109857
33.249	-0.0175	0.2385	1	1	-0.0984945
33.299	-0.0085	0.2655	1	1	-0.0858945
33.349	0	0.2985	1	1	-0.0717945
33.399	0.008	0.336	1	1	-0.055932
33.449	0.0165	0.381	1	1	-0.038007
33.499	0.0245	0.4365	1	1	-0.0175695
33.549	0.0325	0.504	1	1	0.005943
33.599	0.04	0.5895	1	1	0.0332805
33.649	0.0475	0.6765	1	1	0.0649305
33.699	0.056	0.714	1	1	0.099693
33.749	0.0655	0.444	1	1	0.128643
33.799	0.0665	-0.069	1	1	0.138018
33.849	0.059	-0.135	1	1	0.132918
33.899	0.0505	-0.1605	1	1	0.1255305
33.949	0.0415	-0.177	1	1	0.117093
33.999	0.0325	-0.1995	1	1	0.1076805
34.049	0.024	-0.2205	1	1	0.0971805
34.099	0.0155	-0.2445	1	1	0.0855555
34.149	0.0065	-0.2715	1	1	0.0726555
34.199	-0.0015	-0.3045	1	1	0.0582555
34.249	-0.01	-0.342	1	1	0.042093
34.299	-0.0185	-0.39	1	1	0.023793
34.349	-0.0265	-0.447	1	1	0.002868
34.399	-0.0345	-0.5175	1	1	-0.0212445
34.449	-0.042	-0.603	1	1	-0.049257
34.499	-0.0495	-0.693	1	1	-0.081657
34.549	-0.0575	-0.7335	1	1	-0.1173195
34.599	-0.0655	-0.24	1	1	-0.141657
34.649	-0.0635	0.102	1	1	-0.145107
34.699	-0.055	0.144	1	1	-0.138957
34.749	-0.0465	0.1665	1	1	-0.1311945
34.799	-0.038	0.1875	1	1	-0.1223445
34.849	-0.029	0.207	1	1	-0.112482
34.899	-0.0205	0.2295	1	1	-0.1015695
34.95	-0.0115	0.2565	1	1	-0.0891765
35	-0.003	0.2865	1	1	-0.0756015
35.05	0.0055	0.3225	1	1	-0.0603765
35.1	0.0135	0.3645	1	1	-0.0432015
35.15	0.022	0.417	1	1	-0.023664
35.2	0.03	0.48	1	1	-0.001239
35.25	0.0375	0.561	1	1	0.024786
35.3	0.045	0.651	1	1	0.055086
35.35	0.053	0.711	1	1	0.089136
35.4	0.0625	0.6855	1	1	0.1240485
35.45	0.0675	0.0165	1	1	0.1415985
35.5	0.062	-0.123	1	1	0.138936
35.55	0.053	-0.153	1	1	0.132036
35.6	0.0445	-0.174	1	1	0.123861
35.65	0.0355	-0.192	1	1	0.114711
35.7	0.0265	-0.213	1	1	0.104586
35.75	0.018	-0.237	1	1	0.093336
35.8	0.009	-0.2655	1	1	0.0807735
35.85	0.0005	-0.294	1	1	0.066786
35.9	-0.0075	-0.33	1	1	0.051186
35.95	-0.016	-0.375	1	1	0.033561
36	-0.024	-0.4275	1	1	0.0134985
36.05	-0.032	-0.4935	1	1	-0.0095265
36.1	-0.0395	-0.576	1	1	-0.036264
36.15	-0.047	-0.6675	1	1	-0.0673515
36.2	-0.055	-0.732	1	1	-0.102339
36.25	-0.0645	-0.4515	1	1	-0.1319265
36.3	-0.0655	0.063	1	1	-0.141639
36.35	-0.058	0.1335	1	1	-0.1367265
36.4	-0.0495	0.1605	1	1	-0.1293765
36.45	-0.0405	0.1785	1	1	-0.1209015
36.5	-0.0315	0.1995	1	1	-0.1114515
36.55	-0.023	0.222	1	1	-0.100914
36.6	-0.0145	0.2475	1	1	-0.0891765
36.65	-0.0055	0.2745	1	1	-0.0761265
36.7	0.0025	0.309	1	1	-0.061539
36.75	0.011	0.3495	1	1	-0.0450765
36.8	0.019	0.3975	1	1	-0.0264015
36.85	0.027	0.459	1	1	-0.004989
36.9	0.035	0.5325	1	1	0.0197985
36.95	0.0425	0.621	1	1	0.048636
37	0.0505	0.699	1	1	0.081636
37.05	0.059	0.7035	1	1	0.1166985
37.1	0.067	0.192	1	1	0.139086
37.15	0.0645	-0.1065	1	1	0.1412235
37.2	0.056	-0.1455	1	1	0.1349235
37.25	0.047	-0.1695	1	1	0.1270485
37.3	0.0385	-0.186	1	1	0.118161
37.35	0.0295	-0.207	1	1	0.108336
37.4	0.021	-0.2295	1	1	0.0974235
37.45	0.012	-0.2565	1	1	0.0852735
37.5	0.0035	-0.285	1	1	0.071736
37.55	-0.005	-0.3195	1	1	0.0566235
37.6	-0.013	-0.3585	1	1	0.0396735
37.65	-0.0215	-0.411	1	1	0.020436
37.7	-0.0295	-0.4695	1	1	-0.0015765
37.75	-0.0375	-0.5505	1	1	-0.0270765
37.8	-0.045	-0.6405	1	1	-0.0568515
37.85	-0.0525	-0.72	1	1	-0.090864
37.9	-0.061	-0.723	1	1	-0.126939
37.95	-0.0665	-0.0345	1	1	-0.1458765
38	-0.0605	0.1215	1	1	-0.1437015
38.05	-0.052	0.1515	1	1	-0.1368765
38.1	-0.0435	0.1725	1	1	-0.1287765
38.15	-0.035	0.1935	1	1	-0.1196265
38.2	-0.026	0.2145	1	1	-0.1094265
38.25	-0.017	0.2385	1	1	-0.0981015
38.3	-0.0085	0.2655	1	1	-0.0855015
38.35	0	0.297	1	1	-0.071439
38.4	0.008	0.336	1	1	-0.055614
38.45	0.0165	0.381	1	1	-0.037689
38.5	0.0245	0.4365	1	1	-0.0172515
38.55	0.0325	0.5055	1	1	0.0062985
38.6	0.04	0.5895	1	1	0.0336735
38.65	0.0475	0.6765	1	1	0.0653235
38.7	0.056	0.7125	1	1	0.1000485
38.75	0.0655	0.423	1	1	0.128436
38.8	0.0665	-0.0735	1	1	0.1371735
38.85	0.059	-0.135	1	1	0.131961
38.9	0.05	-0.1605	1	1	0.1245735
38.95	0.0415	-0.1785	1	1	0.1160985
39	0.0325	-0.201	1	1	0.106611
39.05	0.024	-0.222	1	1	0.096036
39.1	0.015	-0.246	1	1	0.084336
39.15	0.0065	-0.273	1	1	0.071361
39.2	-0.002	-0.306	1	1	0.056886
39.25	-0.01	-0.3435	1	1	0.0406485
39.3	-0.0185	-0.39	1	1	0.022311
39.35	-0.0265	-0.4485	1	1	0.0013485
39.4	-0.0345	-0.5205	1	1	-0.0228765
39.45	-0.042	-0.609	1	1	-0.051114
39.5	-0.0495	-0.6945	1	1	-0.0837015
39.55	-0.058	-0.7335	1	1	-0.1194015
39.6	-0.066	-0.225	1	1	-0.143364
39.65	-0.0635	0.1035	1	1	-0.1464015
39.7	-0.0555	0.144	1	1	-0.140214
39.75	-0.0465	0.1665	1	1	-0.1324515
39.8	-0.0375	0.1875	1	1	-0.1236015
39.85	-0.029	0.2085	1	1	-0.1137015
39.9	-0.02	0.231	1	1	-0.102714
39.95	-0.0115	0.2565	1	1	-0.0905265
40	-0.0025	0.2865	1	1	-0.0769515
40.05	0.0055	0.3225	1	1	-0.0617265
40.1	0.0135	0.3645	1	1	-0.0445515
40.15	0.022	0.4185	1	1	-0.0249765
40.2	0.03	0.48	1	1	-0.002514
40.25	0.0375	0.561	1	1	0.023511
40.3	0.045	0.651	1	1	0.053811
40.35	0.053	0.7095	1	1	0.0878235
40.4	0.0625	0.684	1	1	0.122661
40.45	0.0675	0.015	1	1	0.140136
40.5	0.0615	-0.123	1	1	0.137436
40.55	0.053	-0.153	1	1	0.130536
40.6	0.044	-0.1725	1	1	0.1223985
40.65	0.0355	-0.192	1	1	0.113286
40.7	0.0265	-0.213	1	1	0.103161
40.75	0.018	-0.2355	1	1	0.0919485
40.8	0.009	-0.2625	1	1	0.0794985
40.85	0.0005	-0.2925	1	1	0.0656235
40.9	-0.0075	-0.33	1	1	0.050061
40.95	-0.016	-0.3735	1	1	0.0324735
41	-0.024	-0.4275	1	1	0.0124485
41.05	-0.032	-0.4935	1	1	-0.0105765
41.1	-0.0395	-0.576	1	1	-0.037314
41.15	-0.047	-0.666	1	1	-0.068364
41.2	-0.055	-0.729	1	1	-0.103239
41.25	-0.064	-0.462	1	1	-0.133014
41.3	-0.0655	0.066	1	1	-0.142914
41.35	-0.058	0.135	1	1	-0.137889
41.4	-0.0495	0.1605	1	1	-0.1305015
41.45	-0.0405	0.18	1	1	-0.121989
41.5	-0.032	0.201	1	1	-0.112464
41.55	-0.023	0.2235	1	1	-0.1018515
41.6	-0.0145	0.2475	1	1	-0.0900765
41.65	-0.0055	0.276	1	1	-0.076989
41.7	0.0025	0.3105	1	1	-0.0623265
41.75	0.011	0.351	1	1	-0.045789
41.8	0.0195	0.399	1	1	-0.027039
41.85	0.0275	0.4605	1	1	-0.0055515
41.9	0.035	0.5325	1	1	0.0192735
41.95	0.0425	0.6225	1	1	0.0481485
41.999	0.0505	0.6975	1	1	0.0804885
42.049	0.059	0.702	1	1	0.115476
42.1	0.067	0.1905	1	1	0.13823475
42.149	0.0645	-0.105	1	1	0.1403295
42.199	0.056	-0.144	1	1	0.1341045
42.249	0.047	-0.1665	1	1	0.126342
42.3	0.0385	-0.1845	1	1	0.1173915
42.349	0.0295	-0.2055	1	1	0.1078365
42.399	0.0205	-0.228	1	1	0.096999
42.449	0.012	-0.2535	1	1	0.0849615
42.5	0.0035	-0.282	1	1	0.07130625
42.549	-0.0045	-0.318	1	1	0.05660625
42.6	-0.013	-0.3585	1	1	0.0393555
42.649	-0.0215	-0.408	1	1	0.02057625
42.699	-0.0295	-0.4695	1	1	-0.00136125
42.749	-0.037	-0.546	1	1	-0.02674875
42.8	-0.0445	-0.636	1	1	-0.05688975
42.849	-0.0525	-0.7155	1	1	-0.0900015
42.9	-0.061	-0.7215	1	1	-0.126645
42.949	-0.0665	-0.039	1	1	-0.14527725
42.999	-0.061	0.1215	1	1	-0.14321475
43.049	-0.0525	0.153	1	1	-0.13635225
43.1	-0.0435	0.174	1	1	-0.12801375
43.149	-0.0345	0.1935	1	1	-0.11901
43.199	-0.026	0.216	1	1	-0.1087725
43.249	-0.017	0.24	1	1	-0.0973725
43.299	-0.0085	0.267	1	1	-0.0846975
43.349	0	0.2985	1	1	-0.07056
43.399	0.008	0.336	1	1	-0.0546975
43.449	0.0165	0.3825	1	1	-0.036735
43.499	0.0245	0.4365	1	1	-0.01626
43.549	0.0325	0.5055	1	1	0.00729
43.599	0.04	0.591	1	1	0.0347025
43.649	0.0475	0.6765	1	1	0.06639
43.699	0.056	0.7125	1	1	0.101115
43.749	0.0655	0.4215	1	1	0.129465
43.799	0.0665	-0.0735	1	1	0.138165
43.849	0.059	-0.135	1	1	0.1329525
43.899	0.05	-0.1605	1	1	0.125565
43.949	0.0415	-0.1785	1	1	0.11709
43.999	0.0325	-0.1995	1	1	0.10764
44.049	0.0235	-0.2205	1	1	0.09714
44.099	0.015	-0.2445	1	1	0.085515
44.149	0.0065	-0.273	1	1	0.0725775
44.199	-0.002	-0.3045	1	1	0.05814
44.249	-0.0105	-0.3435	1	1	0.04194
44.299	-0.0185	-0.39	1	1	0.0236025
44.349	-0.027	-0.447	1	1	0.0026775
44.399	-0.0345	-0.519	1	1	-0.0214725
44.449	-0.042	-0.6045	1	1	-0.04956
44.499	-0.0495	-0.6945	1	1	-0.082035
44.549	-0.058	-0.732	1	1	-0.1176975
44.599	-0.066	-0.222	1	1	-0.1415475
44.649	-0.0635	0.1035	1	1	-0.14451
44.699	-0.0555	0.1455	1	1	-0.138285
44.749	-0.0465	0.168	1	1	-0.1304475
44.799	-0.0375	0.186	1	1	-0.1215975
44.849	-0.029	0.207	1	1	-0.1117725
44.899	-0.02	0.231	1	1	-0.1008225
44.949	-0.0115	0.2565	1	1	-0.088635
44.999	-0.0025	0.2865	1	1	-0.07506
45.049	0.0055	0.3225	1	1	-0.059835
45.099	0.014	0.366	1	1	-0.0426225
45.149	0.022	0.417	1	1	-0.0230475
45.199	0.03	0.48	1	1	-0.0006225
45.249	0.0375	0.561	1	1	0.0254025
45.299	0.045	0.6495	1	1	0.055665
45.349	0.053	0.7095	1	1	0.08964
45.399	0.0625	0.6825	1	1	0.12444
45.449	0.0675	0.0135	1	1	0.14184
45.499	0.0615	-0.123	1	1	0.1391025
45.549	0.053	-0.153	1	1	0.1322025
45.599	0.044	-0.174	1	1	0.1240275
45.649	0.0355	-0.192	1	1	0.1148775
45.699	0.0265	-0.213	1	1	0.1047525
45.749	0.018	-0.237	1	1	0.0935025
45.799	0.0095	-0.2625	1	1	0.081015
45.849	0.0005	-0.294	1	1	0.0671025
45.899	-0.0075	-0.33	1	1	0.0515025
45.949	-0.016	-0.375	1	1	0.0338775
45.999	-0.024	-0.426	1	1	0.0138525
46.049	-0.032	-0.4935	1	1	-0.009135
46.099	-0.0395	-0.5745	1	1	-0.035835
46.149	-0.047	-0.666	1	1	-0.0668475
46.199	-0.055	-0.729	1	1	-0.1017225
46.249	-0.064	-0.459	1	1	-0.1314225
46.299	-0.0655	0.066	1	1	-0.1412475
46.349	-0.058	0.135	1	1	-0.1362225
46.399	-0.0495	0.1605	1	1	-0.128835
46.449	-0.0405	0.18	1	1	-0.1203225
46.499	-0.032	0.201	1	1	-0.1107975
