1. 전자석에 흘려주는 전류에 따른 자기장,,,,"샘플(n-type,p-type)에 전류를 고정시킨 뒤, 자기장을 증가시킬 때 측정되는 Hall Voltage",,,,,,,,,,,,,,,,,,,,,,,,,,,,,
자기장 크기(G),전류(A),전류(double check),,2. n-type Ge,,,,,,,,,,,,,,,,3. p-type Ge,,,,,,,,,,,,,
40,,0,,2-1) 전류 2mA,initial voltage :,-4.6,,,2-2) 전류 4mA,initial voltage :,38.3,,,2-3) 전류 6mA,initial voltage :,35,,,,3-1) 전류 2mA,initial voltage :,0,,,3-2) 전류 4mA,initial voltage :,0,,,3-3) 전류 6mA,initial voltage :,0,
100,0.04,0.02,,자기장 만드는 전류(A),자기장 크기(G),전압(mV),전압(mV),,자기장 만드는 전류(A),자기장 크기(G),전압(mV),전압(mV),,자기장 만드는 전류(A),자기장 크기(G),전압(mV),전압(mV),,,자기장 만드는 전류(A),자기장 크기(G),전압(mV),전압(mV),,자기장 만드는 전류(A),자기장 크기(G),전압(mV),전압(mV),,자기장 만드는 전류(A),자기장 크기(G),전압(mV),전압(mV)
200,0.11,0.07,,0.11,200,-7.7,-3.1,,0.11,200,32.1,-6.2,,0.11,200,25.7,-9.3,,,0.11,200,1.5,1.5,,0.11,200,3,3,,0.11,200,4.5,4.5
300,0.17,0.13,,0.24,400,-11.8,-7.2,,0.24,400,23.8,-14.5,,0.24,400,14.8,-20.2,,,0.24,400,3.5,3.5,,0.24,400,7,7,,0.24,400,10.6,10.6
400,0.24,0.17,,0.35,600,-15.2,-10.6,,0.35,600,17.2,-21.1,,0.35,600,5.4,-29.6,,,0.35,600,5.3,5.3,,0.35,600,10.6,10.6,,0.35,600,15.9,15.9
500,0.29,0.22,,0.46,800,-19.1,-14.5,,0.46,800,9.9,-28.4,,0.46,800,-5.2,-40.2,,,0.46,800,7,7,,0.46,800,14.3,14.3,,0.46,800,21.6,21.6
600,0.35,0.27,,0.56,1000,-22.6,-18,,0.56,1000,3.2,-35.1,,0.56,1000,-15,-50,,,0.56,1000,8.7,8.7,,0.56,1000,17.6,17.6,,0.56,1000,26.4,26.4
700,0.4,0.32,,0.67,1200,-26.4,-21.8,,0.67,1200,-4,-42.3,,0.67,1200,-25,-60,,,0.67,1200,10.4,10.4,,0.67,1200,21.2,21.2,,0.67,1200,31.7,31.7
800,0.46,0.37,,0.77,1400,-30.1,-25.5,,0.77,1400,-11.1,-49.4,,0.77,1400,-35.1,-70.1,,,0.77,1400,12,12,,0.77,1400,24.6,24.6,,0.77,1400,36.5,36.5
900,0.51,0.42,,0.87,1600,-33.7,-29.1,,0.87,1600,-18.5,-56.8,,0.87,1600,-45.5,-80.5,,,0.87,1600,13.8,13.8,,0.87,1600,27.8,27.8,,0.87,1600,41.4,41.4
1000,0.56,0.47,,0.97,1800,-37.2,-32.6,,0.97,1800,-24.8,-63.1,,0.97,1800,-55,-90,,,0.97,1800,15.3,15.3,,0.97,1800,30.8,30.8,,0.97,1800,46,46
1100,0.62,0.51,,1.08,2000,-41,-36.4,,1.08,2000,-32.4,-70.7,,1.08,2000,-65.5,-100.5,,,1.08,2000,16.8,16.8,,1.08,2000,34,34,,1.08,2000,51.1,51.1
1200,0.67,0.56,,1.19,2200,-45,-40.4,,1.19,2200,-39.9,-78.2,,1.19,2200,-76,-111,,,1.19,2200,18.6,18.6,,1.19,2200,37.2,37.2,,1.19,2200,55.9,55.9
1300,0.72,0.61,,1.29,2400,-48.4,-43.8,,1.29,2400,-46.4,-84.7,,1.29,2400,-86.6,-121.6,,,1.29,2400,19.9,19.9,,1.29,2400,40.1,40.1,,1.29,2400,60,60
1400,0.77,0.66,,1.4,2600,-52.2,-47.6,,1.4,2600,-53.9,-92.2,,1.4,2600,-95.4,-130.4,,,1.4,2600,21.3,21.3,,1.4,2600,42.8,42.8,,1.4,2600,64.4,64.4
1500,0.82,0.71,,1.5,2800,-55.4,-50.8,,1.5,2800,-60.1,-98.4,,1.5,2800,-104.5,-139.5,,,1.5,2800,22.6,22.6,,1.5,2800,45.5,45.5,,1.5,2800,67.9,67.9
1600,0.87,0.76,,1.61,3000,-59.2,-54.6,,1.61,3000,-67,-105.3,,1.61,3000,-114.6,-149.6,,,1.61,3000,23.9,23.9,,1.61,3000,48,48,,1.61,3000,72.2,72.2
1700,0.92,0.8,,1.73,3200,-63,-58.4,,1.73,3200,-74.7,-113,,1.73,3200,-125.4,-160.4,,,1.73,3200,25.3,25.3,,1.73,3200,50.9,50.9,,1.73,3200,76.1,76.1
1800,0.97,0.85,,1.83,3400,-66.4,-61.8,,1.83,3400,-80.8,-119.1,,1.83,3400,-134.5,-169.5,,,1.83,3400,26.5,26.5,,1.83,3400,53.2,53.2,,1.83,3400,79.6,79.6
1900,1.03,0.91,,1.94,3600,-69.9,-65.3,,1.94,3600,-87.7,-126,,1.94,3600,-143.8,-178.8,,,1.94,3600,27.7,27.7,,1.94,3600,55.7,55.7,,1.94,3600,83.3,83.3
2000,1.08,0.96,,2.06,3800,-73.4,-68.8,,2.06,3800,-95,-133.3,,2.06,3800,-153.8,-188.8,,,2.06,3800,29,29,,2.06,3800,58.2,58.2,,2.06,3800,87,87
2100,1.13,1.01,,2.17,4000,-76.8,-72.2,,2.17,4000,-101.2,-139.5,,2.17,4000,-163.3,-198.3,,,2.17,4000,30,30,,2.17,4000,60.3,60.3,,2.17,4000,90.6,90.6
2200,1.19,1.06,,2.29,4200,-80.6,-76,,2.29,4200,-108.1,-146.4,,2.29,4200,-173.5,-208.5,,,2.29,4200,31.3,31.3,,2.29,4200,62.7,62.7,,2.29,4200,94,94
2300,1.24,1.11,,2.4,4400,-83.7,-79.1,,2.4,4400,-114.8,-153.1,,2.4,4400,-182,-217,,,2.4,4400,32.3,32.3,,2.4,4400,65,65,,2.4,4400,97.2,97.2
2400,1.29,1.16,,2.51,4600,-87,-82.4,,2.51,4600,-120.8,-159.1,,2.51,4600,-191.2,-226.2,,,2.51,4600,33.4,33.4,,2.51,4600,66.9,66.9,,2.51,4600,100.4,100.4
2500,1.35,1.21,,2.63,4800,-90.4,-85.8,,2.63,4800,-127.6,-165.9,,,,,,,,2.63,4800,34.5,34.5,,2.63,4800,69.2,69.2,,2.63,4800,103.6,103.6
2600,1.4,1.26,,2.75,5000,-93.8,-89.2,,2.75,5000,-134.2,-172.5,,,,,,,,2.75,5000,35.5,35.5,,2.75,5000,71.3,71.3,,2.75,5000,106.7,106.7
2700,1.46,1.32,,2.87,5200,-97.2,-92.6,,2.87,5200,-140.4,-178.7,,,,,,,,2.87,5200,36.5,36.5,,2.87,5200,73.4,73.4,,2.87,5200,109.9,109.9
2800,1.5,1.37,,2.99,5400,-100.4,-95.8,,2.99,5400,-146.6,-184.9,,,,,,,,2.99,5400,37.5,37.5,,2.99,5400,75.3,75.3,,2.99,5400,112.9,112.9
2900,1.56,1.42,,3.12,5600,-104.2,-99.6,,3.12,5600,-153.6,-191.9,,,,,,,,3.12,5600,38.6,38.6,,3.12,5600,77.4,77.4,,3.12,5600,116.1,116.1
3000,1.61,1.47,,3.24,5800,-107.2,-102.6,,3.24,5800,-159.2,-197.5,,,,,,,,3.24,5800,39.5,39.5,,3.24,5800,79.2,79.2,,3.24,5800,118.6,118.6
3100,1.67,1.53,,3.37,6000,-110.3,-105.7,,3.37,6000,-165.8,-204.1,,,,,,,,3.37,6000,40.6,40.6,,3.37,6000,81.2,81.2,,3.37,6000,121.8,121.8
3200,1.73,1.58,,,,,,,,,,,,,,,,,,,,,,,,,,,,,,,
3300,1.77,1.63,,,,,,상대오차,,,,,,,,,,,,,,,,,,,,,,,,,
3400,1.83,1.68,,1회차,2mA,1.39E+22,,3.731%,,,,,,,,,,,,,전류,표준편차,기울기,밀도,밀도 평균,상대오차,,,,,,,
3500,1.89,1.74,,,4mA,1.44E+22,,0.311%,,,,,,,,,,,,1회차,2mA,8.426E-09,7.306E-03,3.418E+22,,0.221%,,,,,,,
3600,1.94,1.8,,,6mA,1.51E+22,1.45E+22,4.043%,,,,,,,,,,,,,4mA,3.581E-08,1.467E-02,3.404E+22,,0.171%,,,,,,,
3700,2,1.86,,2회차,2mA,1.49E+22,,4.431%,,,,,,,,,,,,,6mA,7.965E-08,2.198E-02,3.408E+22,3.410E+22,0.050%,,,,,,,
3800,2.06,1.91,,,4mA,1.54E+22,,1.041%,,,,,,,,,,,,2회차,2mA,2.999E-09,6.861E-03,3.639E+22,,0.224%,,,,,,,
3900,2.11,1.96,,,6mA,1.64E+22,1.56E+22,5.471%,,,,,,,,,,,,,4mA,1.300E-08,1.378E-02,3.625E+22,,0.173%,,,,,,,
4000,2.17,2.02,,,,,,,,,,,,,,,,,,,6mA,2.873E-08,2.064E-02,3.629E+22,3.631E+22,0.051%,,,,,,,
4100,2.22,2.07,,,,,,,,,,,,,,,,,,,,,,,,,,,,,,,
4200,2.29,2.13,,,,,,,,,,,,,,,,,,,,,,,,,,,,,,,
4300,2.34,2.19,,,,,,,,,,,,,,,,,,,,,,,,,,,,,,,
4400,2.4,2.25,,,,,,,,,,,,,,,,,,,,,,,,,,,,,,,
4500,2.44,2.32,,,,,,,,,,,,,,,,,,,,,,,,,,,,,,,
4600,2.51,2.37,,,,,,,,,,,,,,,,,,,,,,,,,,,,,,,
4700,2.57,2.43,,,,,,,,,,,,,,,,,,,,,,,,,,,,,,,
4800,2.63,2.49,,,,,,,,,,,,,,,,,,,,,,,,,,,,,,,
4900,2.69,2.54,,,,,,,,,,,,,,,,,,,,,,,,,,,,,,,
5000,2.75,2.6,,,,,,,,,,,,,,,,,,,,,,,,,,,,,,,
5100,2.81,2.66,,,,,,,,,,,,,,,,,,,,,,,,,,,,,,,
5200,2.87,2.73,,,,,,,,,,,,,,,,,,,,,,,,,,,,,,,
5300,2.93,2.78,,,,,,,,,,,,,,,,,,,,,,,,,,,,,,,
5400,2.99,2.85,,,,,,,,,,,,,,,,,,,,,,,,,,,,,,,
5500,3.06,2.91,,,,,,,,,,,,,,,,,,,,,,,,,,,,,,,
5600,3.12,2.98,,,,,,,,,,,,,,,,,,,,,,,,,,,,,,,
5700,3.18,3.05,,,,,,,,,,,,,,,,,,,,,,,,,,,,,,,
5800,3.24,3.12,,,,,,,,,,,,,,,,,,,,,,,,,,,,,,,
5900,3.31,3.19,,,,,,,,,,,,,,,,,,,,,,,,,,,,,,,
6000,3.37,3.25,,,,,,,,,,,,,,,,,,,,,,,,,,,,,,,
6100,3.44,3.33,,,,,,,,,,,,,,,,,,,,,,,,,,,,,,,
6200,3.51,3.4,,,,,,,,,,,,,,,,,,,,,,,,,,,,,,,
6300,3.58,3.48,,,,,,,,,,,,,,,,,,,,,,,,,,,,,,,
6400,3.65,3.57,,,,,,,,,,,,,,,,,,,,,,,,,,,,,,,
6500,3.72,3.65,,,,,,,,,,,,,,,,,,,,,,,,,,,,,,,
6600,3.8,3.74,,,,,,,,,,,,,,,,,,,,,,,,,,,,,,,
6700,3.88,3.85,,,,,,,,,,,,,,,,,,,,,,,,,,,,,,,
6800,3.95,,,,,,,,,,,,,,,,,,,,,,,,,,,,,,,,
