[Measurement conditions]
Sample identification,
Comment - 1,"Configuration=Flat sample stage, Owner=User-1, Creation date=9/4/2017 1:38:11 PM"
Comment - 2,"Goniometer=PW3050/60 (Theta/Theta); Minimum step size 2Theta:0.001; Minimum step size Omega:0.001"
Comment - 3,"Sample stage=PW3071/xx Bracket"
Comment - 4,"Diffractometer system=XPERT-PRO"
Comment - 5,"Measurement program=C:\PANalytical\Data Collector\Programs\KTH_FSS.xrdmp, Identifier={66F37155-83A8-48B8-A400-FEDCA643D064}"
Anode material,Cu
K-Alpha1 wavelength,1.5405980
K-Alpha2 wavelength,1.5444260
Ratio K-Alpha2/K-Alpha1,0.500
Divergence slit,Fixed,0.38mm
Monochromator used,NO
Generator voltage, 40
Tube current, 30
File date and time,03/Jul/2020 12:16
Unit cell,
h k l, 0 0 0
Scan axis,Gonio
Scan range,10.009999997,89.999681013
Scan step size,0.0262606
No. of points, 3046
Scan type,CONTINUOUS
Time per step,126.990
[Scan points]
Angle,Intensity
10.023130280,1362.0
10.049390845,1343.0
10.075651410,1292.0
10.101911975,1329.0
10.128172540,1320.0
10.154433105,1343.0
10.180693670,1320.0
10.206954235,1283.0
10.233214800,1346.0
10.259475365,1304.0
10.285735930,1314.0
10.311996495,1309.0
10.338257060,1322.0
10.364517625,1298.0
10.390778190,1267.0
10.417038755,1285.0
10.443299320,1334.0
10.469559885,1257.0
10.495820450,1246.0
10.522081015,1274.0
10.548341580,1356.0
10.574602145,1249.0
10.600862710,1287.0
10.627123275,1318.0
10.653383840,1286.0
10.679644405,1294.0
10.705904970,1312.0
10.732165535,1273.0
10.758426100,1332.0
10.784686665,1223.0
10.810947230,1251.0
10.837207795,1248.0
10.863468360,1265.0
10.889728925,1254.0
10.915989490,1245.0
10.942250055,1265.0
10.968510620,1232.0
10.994771185,1367.0
11.021031750,1286.0
11.047292315,1267.0
11.073552880,1189.0
11.099813445,1226.0
11.126074010,1229.0
11.152334575,1236.0
11.178595140,1160.0
11.204855705,1280.0
11.231116270,1280.0
11.257376835,1260.0
11.283637400,1234.0
11.309897965,1195.0
11.336158530,1253.0
11.362419095,1234.0
11.388679660,1229.0
11.414940225,1193.0
11.441200790,1136.0
11.467461355,1232.0
11.493721920,1212.0
11.519982485,1260.0
11.546243050,1229.0
11.572503615,1184.0
11.598764180,1193.0
11.625024746,1289.0
11.651285311,1253.0
11.677545876,1239.0
11.703806441,1193.0
11.730067006,1224.0
11.756327571,1249.0
11.782588136,1149.0
11.808848701,1189.0
11.835109266,1195.0
11.861369831,1168.0
11.887630396,1173.0
11.913890961,1292.0
11.940151526,1250.0
11.966412091,1184.0
11.992672656,1199.0
12.018933221,1198.0
12.045193786,1184.0
12.071454351,1138.0
12.097714916,1185.0
12.123975481,1158.0
12.150236046,1143.0
12.176496611,1207.0
12.202757176,1158.0
12.229017741,1142.0
12.255278306,1145.0
12.281538871,1203.0
12.307799436,1195.0
12.334060001,1200.0
12.360320566,1169.0
12.386581131,1136.0
12.412841696,1147.0
12.439102261,1148.0
12.465362826,1218.0
12.491623391,1147.0
12.517883956,1099.0
12.544144521,1149.0
12.570405086,1206.0
12.596665651,1105.0
12.622926216,1201.0
12.649186781,1188.0
12.675447346,1109.0
12.701707911,1171.0
12.727968476,1183.0
12.754229041,1131.0
12.780489606,1187.0
12.806750171,1179.0
12.833010736,1196.0
12.859271301,1118.0
12.885531866,1046.0
12.911792431,1094.0
12.938052996,1072.0
12.964313561,1127.0
12.990574126,1050.0
13.016834691,1190.0
13.043095256,1158.0
13.069355821,1076.0
13.095616386,1122.0
13.121876951,1101.0
13.148137516,1135.0
13.174398081,1074.0
13.200658646,1144.0
13.226919211,1160.0
13.253179776,1220.0
13.279440341,1069.0
13.305700906,1064.0
13.331961471,1094.0
13.358222036,1042.0
13.384482601,1108.0
13.410743166,1093.0
13.437003731,1086.0
13.463264296,1148.0
13.489524861,1083.0
13.515785426,1116.0
13.542045991,1067.0
13.568306556,1087.0
13.594567121,1106.0
13.620827686,1128.0
13.647088251,1072.0
13.673348816,1067.0
13.699609381,1066.0
13.725869946,1016.0
13.752130511,1063.0
13.778391076,1040.0
13.804651641,1021.0
13.830912206,1082.0
13.857172771,1023.0
13.883433336,1034.0
13.909693901,1050.0
13.935954466,1074.0
13.962215031,1057.0
13.988475596,1049.0
14.014736161,1059.0
14.040996726,1029.0
14.067257291,1085.0
14.093517856,1103.0
14.119778421,1101.0
14.146038986,1082.0
14.172299551,1052.0
14.198560116,1036.0
14.224820681,1124.0
14.251081246,1033.0
14.277341811,1041.0
14.303602376,1014.0
14.329862941,1072.0
14.356123506,993.0
14.382384071,976.0
14.408644636,1031.0
14.434905201,965.0
14.461165766,1015.0
14.487426331,982.0
14.513686896,929.0
14.539947461,1034.0
14.566208026,1023.0
14.592468591,999.0
14.618729156,980.0
14.644989721,1019.0
14.671250286,1021.0
14.697510851,984.0
14.723771416,1032.0
14.750031981,974.0
14.776292546,959.0
14.802553111,939.0
14.828813677,992.0
14.855074242,940.0
14.881334807,971.0
14.907595372,1003.0
14.933855937,956.0
14.960116502,1046.0
14.986377067,978.0
15.012637632,958.0
15.038898197,979.0
15.065158762,1000.0
15.091419327,945.0
15.117679892,977.0
15.143940457,995.0
15.170201022,962.0
15.196461587,978.0
15.222722152,951.0
15.248982717,963.0
15.275243282,881.0
15.301503847,993.0
15.327764412,968.0
15.354024977,1016.0
15.380285542,956.0
15.406546107,935.0
15.432806672,1001.0
15.459067237,994.0
15.485327802,949.0
15.511588367,943.0
15.537848932,977.0
15.564109497,912.0
15.590370062,957.0
15.616630627,981.0
15.642891192,975.0
15.669151757,936.0
15.695412322,899.0
15.721672887,924.0
15.747933452,892.0
15.774194017,909.0
15.800454582,892.0
15.826715147,908.0
15.852975712,910.0
15.879236277,954.0
15.905496842,952.0
15.931757407,909.0
15.958017972,942.0
15.984278537,986.0
16.010539102,937.0
16.036799667,921.0
16.063060232,860.0
16.089320797,950.0
16.115581362,891.0
16.141841927,892.0
16.168102492,910.0
16.194363057,938.0
16.220623622,932.0
16.246884187,852.0
16.273144752,881.0
16.299405317,925.0
16.325665882,892.0
16.351926447,899.0
16.378187012,928.0
16.404447577,920.0
16.430708142,915.0
16.456968707,912.0
16.483229272,931.0
16.509489837,909.0
16.535750402,851.0
16.562010967,879.0
16.588271532,801.0
16.614532097,927.0
16.640792662,839.0
16.667053227,851.0
16.693313792,835.0
16.719574357,860.0
16.745834922,886.0
16.772095487,859.0
16.798356052,852.0
16.824616617,823.0
16.850877182,920.0
16.877137747,868.0
16.903398312,852.0
16.929658877,852.0
16.955919442,841.0
16.982180007,865.0
17.008440572,851.0
17.034701137,878.0
17.060961702,858.0
17.087222267,891.0
17.113482832,885.0
17.139743397,873.0
17.166003962,862.0
17.192264527,839.0
17.218525092,828.0
17.244785657,821.0
17.271046222,855.0
17.297306787,860.0
17.323567352,894.0
17.349827917,803.0
17.376088482,880.0
17.402349047,823.0
17.428609612,794.0
17.454870177,829.0
17.481130742,832.0
17.507391307,918.0
17.533651872,851.0
17.559912437,812.0
17.586173002,877.0
17.612433567,813.0
17.638694132,794.0
17.664954697,820.0
17.691215262,825.0
17.717475827,829.0
17.743736392,861.0
17.769996957,853.0
17.796257522,824.0
17.822518087,800.0
17.848778652,812.0
17.875039217,806.0
17.901299782,843.0
17.927560347,877.0
17.953820912,889.0
17.980081477,833.0
18.006342042,853.0
18.032602608,820.0
18.058863173,753.0
18.085123738,846.0
18.111384303,811.0
18.137644868,848.0
18.163905433,784.0
18.190165998,786.0
18.216426563,769.0
18.242687128,792.0
18.268947693,822.0
18.295208258,844.0
18.321468823,837.0
18.347729388,853.0
18.373989953,768.0
18.400250518,775.0
18.426511083,830.0
18.452771648,791.0
18.479032213,811.0
18.505292778,743.0
18.531553343,791.0
18.557813908,800.0
18.584074473,802.0
18.610335038,814.0
18.636595603,794.0
18.662856168,783.0
18.689116733,711.0
18.715377298,700.0
18.741637863,776.0
18.767898428,755.0
18.794158993,763.0
18.820419558,841.0
18.846680123,759.0
18.872940688,814.0
18.899201253,797.0
18.925461818,844.0
18.951722383,754.0
18.977982948,718.0
19.004243513,721.0
19.030504078,763.0
19.056764643,763.0
19.083025208,778.0
19.109285773,770.0
19.135546338,796.0
19.161806903,808.0
19.188067468,747.0
19.214328033,767.0
19.240588598,743.0
19.266849163,793.0
19.293109728,688.0
19.319370293,740.0
19.345630858,730.0
19.371891423,705.0
19.398151988,774.0
19.424412553,818.0
19.450673118,774.0
19.476933683,710.0
19.503194248,750.0
19.529454813,745.0
19.555715378,744.0
19.581975943,721.0
19.608236508,791.0
19.634497073,676.0
19.660757638,725.0
19.687018203,716.0
19.713278768,731.0
19.739539333,735.0
19.765799898,772.0
19.792060463,737.0
19.818321028,713.0
19.844581593,710.0
19.870842158,731.0
19.897102723,714.0
19.923363288,685.0
19.949623853,718.0
19.975884418,722.0
20.002144983,707.0
20.028405548,726.0
20.054666113,746.0
20.080926678,691.0
20.107187243,663.0
20.133447808,718.0
20.159708373,690.0
20.185968938,721.0
20.212229503,705.0
20.238490068,718.0
20.264750633,734.0
20.291011198,737.0
20.317271763,658.0
20.343532328,752.0
20.369792893,715.0
20.396053458,662.0
20.422314023,688.0
20.448574588,706.0
20.474835153,710.0
20.501095718,703.0
20.527356283,716.0
20.553616848,720.0
20.579877413,723.0
20.606137978,675.0
20.632398543,777.0
20.658659108,683.0
20.684919673,683.0
20.711180238,687.0
20.737440803,686.0
20.763701368,672.0
20.789961933,624.0
20.816222498,677.0
20.842483063,630.0
20.868743628,612.0
20.895004193,676.0
20.921264758,647.0
20.947525323,695.0
20.973785888,670.0
21.000046453,669.0
21.026307018,692.0
21.052567583,670.0
21.078828148,652.0
21.105088713,570.0
21.131349278,659.0
21.157609843,698.0
21.183870408,655.0
21.210130973,616.0
21.236391539,605.0
21.262652104,639.0
21.288912669,644.0
21.315173234,748.0
21.341433799,684.0
21.367694364,704.0
21.393954929,638.0
21.420215494,655.0
21.446476059,634.0
21.472736624,662.0
21.498997189,702.0
21.525257754,673.0
21.551518319,667.0
21.577778884,673.0
21.604039449,725.0
21.630300014,705.0
21.656560579,714.0
21.682821144,682.0
21.709081709,697.0
21.735342274,719.0
21.761602839,698.0
21.787863404,659.0
21.814123969,729.0
21.840384534,776.0
21.866645099,784.0
21.892905664,894.0
21.919166229,972.0
21.945426794,980.0
21.971687359,1136.0
21.997947924,1273.0
22.024208489,1488.0
22.050469054,1770.0
22.076729619,2162.0
22.102990184,2508.0
22.129250749,2590.0
22.155511314,2848.0
22.181771879,2931.0
22.208032444,3154.0
22.234293009,3154.0
22.260553574,3378.0
22.286814139,3607.0
22.313074704,3300.0
22.339335269,2712.0
22.365595834,2151.0
22.391856399,1562.0
22.418116964,1162.0
22.444377529,986.0
22.470638094,882.0
22.496898659,779.0
22.523159224,765.0
22.549419789,699.0
22.575680354,689.0
22.601940919,645.0
22.628201484,693.0
22.654462049,656.0
22.680722614,647.0
22.706983179,679.0
22.733243744,644.0
22.759504309,618.0
22.785764874,621.0
22.812025439,626.0
22.838286004,600.0
22.864546569,606.0
22.890807134,603.0
22.917067699,619.0
22.943328264,632.0
22.969588829,638.0
22.995849394,614.0
23.022109959,609.0
23.048370524,640.0
23.074631089,627.0
23.100891654,627.0
23.127152219,633.0
23.153412784,571.0
23.179673349,552.0
23.205933914,560.0
23.232194479,553.0
23.258455044,569.0
23.284715609,596.0
23.310976174,567.0
23.337236739,577.0
23.363497304,548.0
23.389757869,584.0
23.416018434,534.0
23.442278999,536.0
23.468539564,567.0
23.494800129,522.0
23.521060694,598.0
23.547321259,559.0
23.573581824,611.0
23.599842389,589.0
23.626102954,577.0
23.652363519,594.0
23.678624084,578.0
23.704884649,592.0
23.731145214,588.0
23.757405779,597.0
23.783666344,621.0
23.809926909,632.0
23.836187474,657.0
23.862448039,614.0
23.888708604,639.0
23.914969169,673.0
23.941229734,664.0
23.967490299,730.0
23.993750864,719.0
24.020011429,715.0
24.046271994,752.0
24.072532559,695.0
24.098793124,736.0
24.125053689,670.0
24.151314254,677.0
24.177574819,690.0
24.203835384,667.0
24.230095949,673.0
24.256356514,687.0
24.282617079,619.0
24.308877644,567.0
24.335138209,651.0
24.361398774,569.0
24.387659339,616.0
24.413919904,623.0
24.440180470,559.0
24.466441035,555.0
24.492701600,537.0
24.518962165,557.0
24.545222730,569.0
24.571483295,538.0
24.597743860,558.0
24.624004425,518.0
24.650264990,541.0
24.676525555,540.0
24.702786120,502.0
24.729046685,527.0
24.755307250,527.0
24.781567815,557.0
24.807828380,543.0
24.834088945,546.0
24.860349510,533.0
24.886610075,556.0
24.912870640,490.0
24.939131205,514.0
24.965391770,529.0
24.991652335,548.0
25.017912900,566.0
25.044173465,567.0
25.070434030,554.0
25.096694595,494.0
25.122955160,477.0
25.149215725,545.0
25.175476290,527.0
25.201736855,545.0
25.227997420,525.0
25.254257985,578.0
25.280518550,510.0
25.306779115,508.0
25.333039680,555.0
25.359300245,541.0
25.385560810,533.0
25.411821375,547.0
25.438081940,537.0
25.464342505,502.0
25.490603070,528.0
25.516863635,532.0
25.543124200,549.0
25.569384765,534.0
25.595645330,530.0
25.621905895,499.0
25.648166460,504.0
25.674427025,524.0
25.700687590,529.0
25.726948155,508.0
25.753208720,494.0
25.779469285,481.0
25.805729850,538.0
25.831990415,572.0
25.858250980,515.0
25.884511545,522.0
25.910772110,494.0
25.937032675,523.0
25.963293240,505.0
25.989553805,502.0
26.015814370,470.0
26.042074935,553.0
26.068335500,473.0
26.094596065,499.0
26.120856630,483.0
26.147117195,467.0
26.173377760,506.0
26.199638325,471.0
26.225898890,526.0
26.252159455,481.0
26.278420020,495.0
26.304680585,500.0
26.330941150,478.0
26.357201715,485.0
26.383462280,480.0
26.409722845,517.0
26.435983410,504.0
26.462243975,532.0
26.488504540,507.0
26.514765105,461.0
26.541025670,472.0
26.567286235,499.0
26.593546800,523.0
26.619807365,490.0
26.646067930,490.0
26.672328495,482.0
26.698589060,469.0
26.724849625,466.0
26.751110190,481.0
26.777370755,480.0
26.803631320,469.0
26.829891885,513.0
26.856152450,485.0
26.882413015,471.0
26.908673580,501.0
26.934934145,506.0
26.961194710,493.0
26.987455275,503.0
27.013715840,477.0
27.039976405,471.0
27.066236970,480.0
27.092497535,445.0
27.118758100,444.0
27.145018665,448.0
27.171279230,504.0
27.197539795,447.0
27.223800360,492.0
27.250060925,489.0
27.276321490,445.0
27.302582055,466.0
27.328842620,469.0
27.355103185,472.0
27.381363750,482.0
27.407624315,464.0
27.433884880,476.0
27.460145445,469.0
27.486406010,491.0
27.512666575,481.0
27.538927140,486.0
27.565187705,512.0
27.591448270,452.0
27.617708836,489.0
27.643969401,483.0
27.670229966,482.0
27.696490531,466.0
27.722751096,448.0
27.749011661,483.0
27.775272226,474.0
27.801532791,462.0
27.827793356,489.0
27.854053921,462.0
27.880314486,481.0
27.906575051,482.0
27.932835616,463.0
27.959096181,430.0
27.985356746,485.0
28.011617311,423.0
28.037877876,409.0
28.064138441,449.0
28.090399006,437.0
28.116659571,438.0
28.142920136,453.0
28.169180701,417.0
28.195441266,432.0
28.221701831,489.0
28.247962396,453.0
28.274222961,466.0
28.300483526,463.0
28.326744091,434.0
28.353004656,505.0
28.379265221,452.0
28.405525786,494.0
28.431786351,478.0
28.458046916,500.0
28.484307481,483.0
28.510568046,475.0
28.536828611,470.0
28.563089176,445.0
28.589349741,480.0
28.615610306,461.0
28.641870871,510.0
28.668131436,446.0
28.694392001,451.0
28.720652566,446.0
28.746913131,423.0
28.773173696,480.0
28.799434261,449.0
28.825694826,418.0
28.851955391,479.0
28.878215956,499.0
28.904476521,435.0
28.930737086,448.0
28.956997651,416.0
28.983258216,461.0
29.009518781,464.0
29.035779346,435.0
29.062039911,465.0
29.088300476,466.0
29.114561041,427.0
29.140821606,424.0
29.167082171,425.0
29.193342736,400.0
29.219603301,419.0
29.245863866,467.0
29.272124431,495.0
29.298384996,456.0
29.324645561,451.0
29.350906126,449.0
29.377166691,424.0
29.403427256,436.0
29.429687821,437.0
29.455948386,479.0
29.482208951,432.0
29.508469516,439.0
29.534730081,455.0
29.560990646,442.0
29.587251211,401.0
29.613511776,435.0
29.639772341,434.0
29.666032906,459.0
29.692293471,436.0
29.718554036,432.0
29.744814601,437.0
29.771075166,414.0
29.797335731,481.0
29.823596296,404.0
29.849856861,428.0
29.876117426,425.0
29.902377991,441.0
29.928638556,410.0
29.954899121,381.0
29.981159686,427.0
30.007420251,447.0
30.033680816,385.0
30.059941381,484.0
30.086201946,415.0
30.112462511,457.0
30.138723076,425.0
30.164983641,429.0
30.191244206,431.0
30.217504771,442.0
30.243765336,467.0
30.270025901,418.0
30.296286466,446.0
30.322547031,419.0
30.348807596,432.0
30.375068161,450.0
30.401328726,456.0
30.427589291,440.0
30.453849856,501.0
30.480110421,512.0
30.506370986,518.0
30.532631551,511.0
30.558892116,527.0
30.585152681,549.0
30.611413246,571.0
30.637673811,567.0
30.663934376,527.0
30.690194941,537.0
30.716455506,557.0
30.742716071,538.0
30.768976636,516.0
30.795237201,570.0
30.821497767,583.0
30.847758332,562.0
30.874018897,570.0
30.900279462,542.0
30.926540027,584.0
30.952800592,581.0
30.979061157,582.0
31.005321722,657.0
31.031582287,609.0
31.057842852,669.0
31.084103417,655.0
31.110363982,703.0
31.136624547,725.0
31.162885112,728.0
31.189145677,813.0
31.215406242,849.0
31.241666807,941.0
31.267927372,1039.0
31.294187937,1179.0
31.320448502,1438.0
31.346709067,1695.0
31.372969632,2215.0
31.399230197,2752.0
31.425490762,3805.0
31.451751327,5108.0
31.478011892,7121.0
31.504272457,10075.0
31.530533022,13774.0
31.556793587,17422.0
31.583054152,18229.0
31.609314717,17621.0
31.635575282,17118.0
31.661835847,15654.0
31.688096412,13509.0
31.714356977,11108.0
31.740617542,8391.0
31.766878107,6342.0
31.793138672,4632.0
31.819399237,3411.0
31.845659802,2279.0
31.871920367,1685.0
31.898180932,1271.0
31.924441497,1128.0
31.950702062,984.0
31.976962627,815.0
32.003223192,810.0
32.029483757,727.0
32.055744322,679.0
32.082004887,638.0
32.108265452,615.0
32.134526017,585.0
32.160786582,611.0
32.187047147,569.0
32.213307712,549.0
32.239568277,559.0
32.265828842,505.0
32.292089407,555.0
32.318349972,535.0
32.344610537,464.0
32.370871102,492.0
32.397131667,452.0
32.423392232,487.0
32.449652797,517.0
32.475913362,507.0
32.502173927,465.0
32.528434492,434.0
32.554695057,433.0
32.580955622,449.0
32.607216187,460.0
32.633476752,456.0
32.659737317,471.0
32.685997882,450.0
32.712258447,452.0
32.738519012,470.0
32.764779577,461.0
32.791040142,419.0
32.817300707,436.0
32.843561272,416.0
32.869821837,380.0
32.896082402,408.0
32.922342967,387.0
32.948603532,441.0
32.974864097,395.0
33.001124662,397.0
33.027385227,425.0
33.053645792,438.0
33.079906357,427.0
33.106166922,431.0
33.132427487,399.0
33.158688052,400.0
33.184948617,370.0
33.211209182,402.0
33.237469747,402.0
33.263730312,390.0
33.289990877,383.0
33.316251442,372.0
33.342512007,384.0
33.368772572,377.0
33.395033137,413.0
33.421293702,362.0
33.447554267,357.0
33.473814832,411.0
33.500075397,372.0
33.526335962,368.0
33.552596527,409.0
33.578857092,385.0
33.605117657,415.0
33.631378222,407.0
33.657638787,396.0
33.683899352,363.0
33.710159917,369.0
33.736420482,422.0
33.762681047,357.0
33.788941612,394.0
33.815202177,405.0
33.841462742,348.0
33.867723307,413.0
33.893983872,398.0
33.920244437,431.0
33.946505002,387.0
33.972765567,408.0
33.999026132,380.0
34.025286698,398.0
34.051547263,407.0
34.077807828,410.0
34.104068393,416.0
34.130328958,419.0
34.156589523,377.0
34.182850088,447.0
34.209110653,466.0
34.235371218,420.0
34.261631783,446.0
34.287892348,429.0
34.314152913,443.0
34.340413478,411.0
34.366674043,410.0
34.392934608,407.0
34.419195173,425.0
34.445455738,439.0
34.471716303,419.0
34.497976868,444.0
34.524237433,353.0
34.550497998,427.0
34.576758563,448.0
34.603019128,376.0
34.629279693,377.0
34.655540258,346.0
34.681800823,418.0
34.708061388,390.0
34.734321953,393.0
34.760582518,378.0
34.786843083,347.0
34.813103648,375.0
34.839364213,369.0
34.865624778,322.0
34.891885343,332.0
34.918145908,348.0
34.944406473,381.0
34.970667038,342.0
34.996927603,339.0
35.023188168,362.0
35.049448733,371.0
35.075709298,386.0
35.101969863,382.0
35.128230428,342.0
35.154490993,374.0
35.180751558,351.0
35.207012123,300.0
35.233272688,361.0
35.259533253,328.0
35.285793818,358.0
35.312054383,343.0
35.338314948,332.0
35.364575513,338.0
35.390836078,346.0
35.417096643,351.0
35.443357208,312.0
35.469617773,327.0
35.495878338,351.0
35.522138903,341.0
35.548399468,272.0
35.574660033,334.0
35.600920598,356.0
35.627181163,306.0
35.653441728,307.0
35.679702293,320.0
35.705962858,321.0
35.732223423,331.0
35.758483988,330.0
35.784744553,361.0
35.811005118,304.0
35.837265683,345.0
35.863526248,337.0
35.889786813,285.0
35.916047378,281.0
35.942307943,341.0
35.968568508,368.0
35.994829073,299.0
36.021089638,281.0
36.047350203,312.0
36.073610768,306.0
36.099871333,311.0
36.126131898,315.0
36.152392463,288.0
36.178653028,329.0
36.204913593,309.0
36.231174158,314.0
36.257434723,309.0
36.283695288,339.0
36.309955853,318.0
36.336216418,316.0
36.362476983,346.0
36.388737548,318.0
36.414998113,327.0
36.441258678,319.0
36.467519243,317.0
36.493779808,260.0
36.520040373,333.0
36.546300938,313.0
36.572561503,296.0
36.598822068,323.0
36.625082633,292.0
36.651343198,315.0
36.677603763,312.0
36.703864328,324.0
36.730124893,343.0
36.756385458,308.0
36.782646023,293.0
36.808906588,324.0
36.835167153,295.0
36.861427718,296.0
36.887688283,302.0
36.913948848,324.0
36.940209413,289.0
36.966469978,292.0
36.992730543,291.0
37.018991108,281.0
37.045251673,298.0
37.071512238,319.0
37.097772803,305.0
37.124033368,331.0
37.150293933,291.0
37.176554498,301.0
37.202815063,291.0
37.229075629,313.0
37.255336194,290.0
37.281596759,316.0
37.307857324,337.0
37.334117889,284.0
37.360378454,290.0
37.386639019,312.0
37.412899584,316.0
37.439160149,307.0
37.465420714,308.0
37.491681279,277.0
37.517941844,309.0
37.544202409,300.0
37.570462974,311.0
37.596723539,304.0
37.622984104,306.0
37.649244669,276.0
37.675505234,344.0
37.701765799,318.0
37.728026364,309.0
37.754286929,362.0
37.780547494,302.0
37.806808059,285.0
37.833068624,331.0
37.859329189,290.0
37.885589754,309.0
37.911850319,323.0
37.938110884,293.0
37.964371449,335.0
37.990632014,299.0
38.016892579,348.0
38.043153144,320.0
38.069413709,330.0
38.095674274,340.0
38.121934839,342.0
38.148195404,387.0
38.174455969,340.0
38.200716534,303.0
38.226977099,346.0
38.253237664,308.0
38.279498229,324.0
38.305758794,365.0
38.332019359,295.0
38.358279924,315.0
38.384540489,352.0
38.410801054,327.0
38.437061619,343.0
38.463322184,337.0
38.489582749,365.0
38.515843314,398.0
38.542103879,380.0
38.568364444,396.0
38.594625009,389.0
38.620885574,422.0
38.647146139,451.0
38.673406704,502.0
38.699667269,589.0
38.725927834,703.0
38.752188399,759.0
38.778448964,949.0
38.804709529,1206.0
38.830970094,1618.0
38.857230659,2245.0
38.883491224,3171.0
38.909751789,4564.0
38.936012354,6099.0
38.962272919,6504.0
38.988533484,5065.0
39.014794049,4209.0
39.041054614,4004.0
39.067315179,3505.0
39.093575744,2216.0
39.119836309,1393.0
39.146096874,920.0
39.172357439,722.0
39.198618004,643.0
39.224878569,515.0
39.251139134,449.0
39.277399699,411.0
39.303660264,459.0
39.329920829,388.0
39.356181394,401.0
39.382441959,411.0
39.408702524,361.0
39.434963089,354.0
39.461223654,337.0
39.487484219,356.0
39.513744784,333.0
39.540005349,338.0
39.566265914,305.0
39.592526479,326.0
39.618787044,311.0
39.645047609,311.0
39.671308174,266.0
39.697568739,333.0
39.723829304,306.0
39.750089869,257.0
39.776350434,352.0
39.802610999,315.0
39.828871564,311.0
39.855132129,303.0
39.881392694,283.0
39.907653259,273.0
39.933913824,276.0
39.960174389,320.0
39.986434954,282.0
40.012695519,284.0
40.038956084,308.0
40.065216649,282.0
40.091477214,291.0
40.117737779,272.0
40.143998344,293.0
40.170258909,311.0
40.196519474,275.0
40.222780039,278.0
40.249040604,284.0
40.275301169,255.0
40.301561734,241.0
40.327822299,264.0
40.354082864,272.0
40.380343429,269.0
40.406603994,290.0
40.432864560,271.0
40.459125125,307.0
40.485385690,295.0
40.511646255,287.0
40.537906820,260.0
40.564167385,307.0
40.590427950,279.0
40.616688515,250.0
40.642949080,286.0
40.669209645,284.0
40.695470210,287.0
40.721730775,261.0
40.747991340,284.0
40.774251905,278.0
40.800512470,284.0
40.826773035,310.0
40.853033600,260.0
40.879294165,265.0
40.905554730,235.0
40.931815295,245.0
40.958075860,260.0
40.984336425,276.0
41.010596990,267.0
41.036857555,234.0
41.063118120,254.0
41.089378685,258.0
41.115639250,253.0
41.141899815,281.0
41.168160380,258.0
41.194420945,275.0
41.220681510,260.0
41.246942075,266.0
41.273202640,239.0
41.299463205,264.0
41.325723770,253.0
41.351984335,269.0
41.378244900,256.0
41.404505465,259.0
41.430766030,287.0
41.457026595,292.0
41.483287160,288.0
41.509547725,256.0
41.535808290,265.0
41.562068855,276.0
41.588329420,264.0
41.614589985,243.0
41.640850550,271.0
41.667111115,262.0
41.693371680,260.0
41.719632245,244.0
41.745892810,257.0
41.772153375,265.0
41.798413940,276.0
41.824674505,249.0
41.850935070,245.0
41.877195635,247.0
41.903456200,242.0
41.929716765,246.0
41.955977330,300.0
41.982237895,282.0
42.008498460,268.0
42.034759025,282.0
42.061019590,299.0
42.087280155,272.0
42.113540720,282.0
42.139801285,283.0
42.166061850,284.0
42.192322415,269.0
42.218582980,282.0
42.244843545,285.0
42.271104110,275.0
42.297364675,271.0
42.323625240,278.0
42.349885805,292.0
42.376146370,275.0
42.402406935,278.0
42.428667500,240.0
42.454928065,273.0
42.481188630,249.0
42.507449195,267.0
42.533709760,288.0
42.559970325,242.0
42.586230890,242.0
42.612491455,222.0
42.638752020,242.0
42.665012585,302.0
42.691273150,264.0
42.717533715,248.0
42.743794280,268.0
42.770054845,279.0
42.796315410,229.0
42.822575975,270.0
42.848836540,223.0
42.875097105,236.0
42.901357670,257.0
42.927618235,251.0
42.953878800,223.0
42.980139365,257.0
43.006399930,223.0
43.032660495,266.0
43.058921060,236.0
43.085181625,252.0
43.111442190,273.0
43.137702755,238.0
43.163963320,254.0
43.190223885,241.0
43.216484450,249.0
43.242745015,255.0
43.269005580,247.0
43.295266145,269.0
43.321526710,218.0
43.347787275,280.0
43.374047840,276.0
43.400308405,245.0
43.426568970,248.0
43.452829535,260.0
43.479090100,256.0
43.505350665,247.0
43.531611230,264.0
43.557871795,243.0
43.584132360,276.0
43.610392926,240.0
43.636653491,225.0
43.662914056,262.0
43.689174621,244.0
43.715435186,263.0
43.741695751,297.0
43.767956316,264.0
43.794216881,276.0
43.820477446,283.0
43.846738011,276.0
43.872998576,278.0
43.899259141,241.0
43.925519706,277.0
43.951780271,250.0
43.978040836,268.0
44.004301401,275.0
44.030561966,244.0
44.056822531,249.0
44.083083096,273.0
44.109343661,277.0
44.135604226,261.0
44.161864791,278.0
44.188125356,267.0
44.214385921,309.0
44.240646486,292.0
44.266907051,282.0
44.293167616,286.0
44.319428181,274.0
44.345688746,290.0
44.371949311,287.0
44.398209876,285.0
44.424470441,266.0
44.450731006,315.0
44.476991571,304.0
44.503252136,303.0
44.529512701,318.0
44.555773266,342.0
44.582033831,321.0
44.608294396,345.0
44.634554961,363.0
44.660815526,324.0
44.687076091,369.0
44.713336656,393.0
44.739597221,429.0
44.765857786,452.0
44.792118351,482.0
44.818378916,570.0
44.844639481,667.0
44.870900046,771.0
44.897160611,1043.0
44.923421176,1345.0
44.949681741,1546.0
44.975942306,1731.0
45.002202871,1839.0
45.028463436,1874.0
45.054724001,1961.0
45.080984566,1951.0
45.107245131,2040.0
45.133505696,2015.0
45.159766261,2071.0
45.186026826,2147.0
45.212287391,2112.0
45.238547956,2237.0
45.264808521,2201.0
45.291069086,2499.0
45.317329651,2557.0
45.343590216,3029.0
45.369850781,3247.0
45.396111346,3846.0
45.422371911,4074.0
45.448632476,3829.0
45.474893041,3286.0
45.501153606,2717.0
45.527414171,2441.0
45.553674736,2296.0
45.579935301,1830.0
45.606195866,1343.0
45.632456431,917.0
45.658716996,766.0
45.684977561,585.0
45.711238126,515.0
45.737498691,457.0
45.763759256,388.0
45.790019821,380.0
45.816280386,386.0
45.842540951,346.0
45.868801516,302.0
45.895062081,329.0
45.921322646,286.0
45.947583211,309.0
45.973843776,293.0
46.000104341,315.0
46.026364906,273.0
46.052625471,248.0
46.078886036,258.0
46.105146601,282.0
46.131407166,239.0
46.157667731,257.0
46.183928296,239.0
46.210188861,220.0
46.236449426,245.0
46.262709991,235.0
46.288970556,237.0
46.315231121,233.0
46.341491686,258.0
46.367752251,280.0
46.394012816,233.0
46.420273381,241.0
46.446533946,240.0
46.472794511,217.0
46.499055076,226.0
46.525315641,231.0
46.551576206,258.0
46.577836771,258.0
46.604097336,239.0
46.630357901,256.0
46.656618466,233.0
46.682879031,251.0
46.709139596,242.0
46.735400161,211.0
46.761660726,267.0
46.787921291,266.0
46.814181857,269.0
46.840442422,233.0
46.866702987,265.0
46.892963552,249.0
46.919224117,251.0
46.945484682,223.0
46.971745247,243.0
46.998005812,254.0
47.024266377,249.0
47.050526942,229.0
47.076787507,217.0
47.103048072,215.0
47.129308637,261.0
47.155569202,208.0
47.181829767,219.0
47.208090332,255.0
47.234350897,207.0
47.260611462,239.0
47.286872027,215.0
47.313132592,223.0
47.339393157,241.0
47.365653722,242.0
47.391914287,237.0
47.418174852,215.0
47.444435417,240.0
47.470695982,219.0
47.496956547,221.0
47.523217112,203.0
47.549477677,218.0
47.575738242,215.0
47.601998807,213.0
47.628259372,215.0
47.654519937,215.0
47.680780502,209.0
47.707041067,192.0
47.733301632,222.0
47.759562197,184.0
47.785822762,194.0
47.812083327,176.0
47.838343892,214.0
47.864604457,207.0
47.890865022,189.0
47.917125587,214.0
47.943386152,217.0
47.969646717,243.0
47.995907282,231.0
48.022167847,181.0
48.048428412,197.0
48.074688977,216.0
48.100949542,204.0
48.127210107,185.0
48.153470672,207.0
48.179731237,208.0
48.205991802,234.0
48.232252367,229.0
48.258512932,223.0
48.284773497,220.0
48.311034062,220.0
48.337294627,217.0
48.363555192,198.0
48.389815757,183.0
48.416076322,178.0
48.442336887,208.0
48.468597452,222.0
48.494858017,232.0
48.521118582,184.0
48.547379147,202.0
48.573639712,202.0
48.599900277,188.0
48.626160842,215.0
48.652421407,208.0
48.678681972,190.0
48.704942537,187.0
48.731203102,179.0
48.757463667,212.0
48.783724232,234.0
48.809984797,182.0
48.836245362,202.0
48.862505927,222.0
48.888766492,211.0
48.915027057,213.0
48.941287622,215.0
48.967548187,221.0
48.993808752,204.0
49.020069317,213.0
49.046329882,190.0
49.072590447,218.0
49.098851012,190.0
49.125111577,203.0
49.151372142,187.0
49.177632707,202.0
49.203893272,215.0
49.230153837,192.0
49.256414402,239.0
49.282674967,214.0
49.308935532,199.0
49.335196097,208.0
49.361456662,243.0
49.387717227,200.0
49.413977792,242.0
49.440238357,189.0
49.466498922,220.0
49.492759487,220.0
49.519020052,201.0
49.545280617,196.0
49.571541182,188.0
49.597801747,215.0
49.624062312,200.0
49.650322877,197.0
49.676583442,207.0
49.702844007,202.0
49.729104572,199.0
49.755365137,240.0
49.781625702,212.0
49.807886267,184.0
49.834146832,217.0
49.860407397,215.0
49.886667962,229.0
49.912928527,200.0
49.939189092,188.0
49.965449657,217.0
49.991710222,227.0
50.017970788,196.0
50.044231353,214.0
50.070491918,207.0
50.096752483,209.0
50.123013048,219.0
50.149273613,208.0
50.175534178,234.0
50.201794743,205.0
50.228055308,226.0
50.254315873,224.0
50.280576438,216.0
50.306837003,220.0
50.333097568,207.0
50.359358133,225.0
50.385618698,221.0
50.411879263,232.0
50.438139828,238.0
50.464400393,265.0
50.490660958,228.0
50.516921523,286.0
50.543182088,290.0
50.569442653,265.0
50.595703218,355.0
50.621963783,383.0
50.648224348,406.0
50.674484913,527.0
50.700745478,615.0
50.727006043,731.0
50.753266608,706.0
50.779527173,733.0
50.805787738,795.0
50.832048303,851.0
50.858308868,829.0
50.884569433,883.0
50.910829998,912.0
50.937090563,949.0
50.963351128,927.0
50.989611693,1050.0
51.015872258,1113.0
51.042132823,1166.0
51.068393388,1179.0
51.094653953,1143.0
51.120914518,1071.0
51.147175083,1062.0
51.173435648,1006.0
51.199696213,836.0
51.225956778,656.0
51.252217343,582.0
51.278477908,518.0
51.304738473,493.0
51.330999038,373.0
51.357259603,289.0
51.383520168,266.0
51.409780733,253.0
51.436041298,251.0
51.462301863,246.0
51.488562428,229.0
51.514822993,232.0
51.541083558,215.0
51.567344123,204.0
51.593604688,214.0
51.619865253,195.0
51.646125818,187.0
51.672386383,189.0
51.698646948,221.0
51.724907513,213.0
51.751168078,177.0
51.777428643,196.0
51.803689208,181.0
51.829949773,207.0
51.856210338,187.0
51.882470903,181.0
51.908731468,177.0
51.934992033,192.0
51.961252598,238.0
51.987513163,207.0
52.013773728,198.0
52.040034293,175.0
52.066294858,169.0
52.092555423,178.0
52.118815988,194.0
52.145076553,198.0
52.171337118,194.0
52.197597683,205.0
52.223858248,182.0
52.250118813,174.0
52.276379378,174.0
52.302639943,191.0
52.328900508,197.0
52.355161073,182.0
52.381421638,182.0
52.407682203,160.0
52.433942768,173.0
52.460203333,188.0
52.486463898,197.0
52.512724463,181.0
52.538985028,185.0
52.565245593,191.0
52.591506158,185.0
52.617766723,178.0
52.644027288,203.0
52.670287853,192.0
52.696548418,173.0
52.722808983,204.0
52.749069548,232.0
52.775330113,173.0
52.801590678,230.0
52.827851243,164.0
52.854111808,205.0
52.880372373,166.0
52.906632938,184.0
52.932893503,171.0
52.959154068,219.0
52.985414633,158.0
53.011675198,184.0
53.037935763,159.0
53.064196328,175.0
53.090456893,190.0
53.116717458,169.0
53.142978023,167.0
53.169238588,172.0
53.195499153,169.0
53.221759719,181.0
53.248020284,184.0
53.274280849,187.0
53.300541414,155.0
53.326801979,166.0
53.353062544,177.0
53.379323109,196.0
53.405583674,165.0
53.431844239,209.0
53.458104804,144.0
53.484365369,170.0
53.510625934,193.0
53.536886499,191.0
53.563147064,204.0
53.589407629,195.0
53.615668194,170.0
53.641928759,188.0
53.668189324,196.0
53.694449889,185.0
53.720710454,186.0
53.746971019,180.0
53.773231584,157.0
53.799492149,187.0
53.825752714,149.0
53.852013279,174.0
53.878273844,188.0
53.904534409,174.0
53.930794974,162.0
53.957055539,187.0
53.983316104,182.0
54.009576669,190.0
54.035837234,190.0
54.062097799,185.0
54.088358364,216.0
54.114618929,200.0
54.140879494,176.0
54.167140059,205.0
54.193400624,176.0
54.219661189,172.0
54.245921754,211.0
54.272182319,203.0
54.298442884,215.0
54.324703449,208.0
54.350964014,196.0
54.377224579,200.0
54.403485144,188.0
54.429745709,185.0
54.456006274,189.0
54.482266839,192.0
54.508527404,216.0
54.534787969,200.0
54.561048534,206.0
54.587309099,193.0
54.613569664,204.0
54.639830229,208.0
54.666090794,200.0
54.692351359,214.0
54.718611924,215.0
54.744872489,205.0
54.771133054,216.0
54.797393619,208.0
54.823654184,227.0
54.849914749,200.0
54.876175314,228.0
54.902435879,195.0
54.928696444,185.0
54.954957009,182.0
54.981217574,201.0
55.007478139,221.0
55.033738704,221.0
55.059999269,218.0
55.086259834,206.0
55.112520399,213.0
55.138780964,191.0
55.165041529,220.0
55.191302094,220.0
55.217562659,215.0
55.243823224,196.0
55.270083789,220.0
55.296344354,209.0
55.322604919,215.0
55.348865484,235.0
55.375126049,217.0
55.401386614,205.0
55.427647179,224.0
55.453907744,257.0
55.480168309,238.0
55.506428874,239.0
55.532689439,265.0
55.558950004,255.0
55.585210569,279.0
55.611471134,265.0
55.637731699,255.0
55.663992264,296.0
55.690252829,284.0
55.716513394,288.0
55.742773959,320.0
55.769034524,359.0
55.795295089,397.0
55.821555654,427.0
55.847816219,473.0
55.874076784,509.0
55.900337349,631.0
55.926597914,803.0
55.952858479,1031.0
55.979119044,1427.0
56.005379609,1846.0
56.031640174,2216.0
56.057900739,2298.0
56.084161304,2342.0
56.110421869,2467.0
56.136682434,2663.0
56.162942999,2887.0
56.189203564,3235.0
56.215464129,3420.0
56.241724694,3685.0
56.267985259,4193.0
56.294245824,4623.0
56.320506389,4935.0
56.346766954,4599.0
56.373027519,3672.0
56.399288084,2949.0
56.425548650,2600.0
56.451809215,2567.0
56.478069780,2485.0
56.504330345,2059.0
56.530590910,1549.0
56.556851475,1037.0
56.583112040,765.0
56.609372605,638.0
56.635633170,514.0
56.661893735,435.0
56.688154300,424.0
56.714414865,346.0
56.740675430,310.0
56.766935995,270.0
56.793196560,295.0
56.819457125,249.0
56.845717690,269.0
56.871978255,234.0
56.898238820,268.0
56.924499385,225.0
56.950759950,252.0
56.977020515,215.0
57.003281080,216.0
57.029541645,222.0
57.055802210,198.0
57.082062775,220.0
57.108323340,204.0
57.134583905,214.0
57.160844470,186.0
57.187105035,199.0
57.213365600,184.0
57.239626165,209.0
57.265886730,179.0
57.292147295,191.0
57.318407860,189.0
57.344668425,170.0
57.370928990,185.0
57.397189555,179.0
57.423450120,177.0
57.449710685,186.0
57.475971250,195.0
57.502231815,185.0
57.528492380,196.0
57.554752945,207.0
57.581013510,195.0
57.607274075,186.0
57.633534640,155.0
57.659795205,193.0
57.686055770,197.0
57.712316335,181.0
57.738576900,152.0
57.764837465,195.0
57.791098030,172.0
57.817358595,183.0
57.843619160,184.0
57.869879725,172.0
57.896140290,190.0
57.922400855,156.0
57.948661420,180.0
57.974921985,180.0
58.001182550,166.0
58.027443115,169.0
58.053703680,191.0
58.079964245,164.0
58.106224810,182.0
58.132485375,189.0
58.158745940,172.0
58.185006505,162.0
58.211267070,189.0
58.237527635,152.0
58.263788200,218.0
58.290048765,138.0
58.316309330,136.0
58.342569895,183.0
58.368830460,173.0
58.395091025,164.0
58.421351590,150.0
58.447612155,160.0
58.473872720,162.0
58.500133285,174.0
58.526393850,184.0
58.552654415,152.0
58.578914980,169.0
58.605175545,201.0
58.631436110,155.0
58.657696675,169.0
58.683957240,137.0
58.710217805,166.0
58.736478370,162.0
58.762738935,187.0
58.788999500,190.0
58.815260065,178.0
58.841520630,161.0
58.867781195,153.0
58.894041760,139.0
58.920302325,168.0
58.946562890,152.0
58.972823455,154.0
58.999084020,170.0
59.025344585,151.0
59.051605150,176.0
59.077865715,196.0
59.104126280,161.0
59.130386845,196.0
59.156647410,169.0
59.182907975,157.0
59.209168540,169.0
59.235429105,191.0
59.261689670,172.0
59.287950235,184.0
59.314210800,131.0
59.340471365,138.0
59.366731930,150.0
59.392992495,182.0
59.419253060,146.0
59.445513625,166.0
59.471774190,150.0
59.498034755,173.0
59.524295320,181.0
59.550555885,163.0
59.576816450,152.0
59.603077016,156.0
59.629337581,163.0
59.655598146,159.0
59.681858711,173.0
59.708119276,147.0
59.734379841,149.0
59.760640406,151.0
59.786900971,140.0
59.813161536,158.0
59.839422101,173.0
59.865682666,170.0
59.891943231,166.0
59.918203796,159.0
59.944464361,160.0
59.970724926,148.0
59.996985491,138.0
60.023246056,164.0
60.049506621,186.0
60.075767186,152.0
60.102027751,147.0
60.128288316,148.0
60.154548881,157.0
60.180809446,169.0
60.207070011,145.0
60.233330576,142.0
60.259591141,138.0
60.285851706,174.0
60.312112271,156.0
60.338372836,150.0
60.364633401,152.0
60.390893966,166.0
60.417154531,189.0
60.443415096,151.0
60.469675661,117.0
60.495936226,148.0
60.522196791,169.0
60.548457356,177.0
60.574717921,186.0
60.600978486,162.0
60.627239051,166.0
60.653499616,156.0
60.679760181,138.0
60.706020746,150.0
60.732281311,140.0
60.758541876,155.0
60.784802441,148.0
60.811063006,172.0
60.837323571,173.0
60.863584136,154.0
60.889844701,147.0
60.916105266,161.0
60.942365831,137.0
60.968626396,155.0
60.994886961,152.0
61.021147526,179.0
61.047408091,150.0
61.073668656,175.0
61.099929221,138.0
61.126189786,159.0
61.152450351,148.0
61.178710916,161.0
61.204971481,152.0
61.231232046,184.0
61.257492611,194.0
61.283753176,164.0
61.310013741,158.0
61.336274306,158.0
61.362534871,144.0
61.388795436,145.0
61.415056001,150.0
61.441316566,147.0
61.467577131,157.0
61.493837696,147.0
61.520098261,158.0
61.546358826,144.0
61.572619391,167.0
61.598879956,148.0
61.625140521,159.0
61.651401086,142.0
61.677661651,136.0
61.703922216,165.0
61.730182781,127.0
61.756443346,127.0
61.782703911,155.0
61.808964476,131.0
61.835225041,145.0
61.861485606,159.0
61.887746171,152.0
61.914006736,143.0
61.940267301,151.0
61.966527866,153.0
61.992788431,136.0
62.019048996,125.0
62.045309561,157.0
62.071570126,115.0
62.097830691,161.0
62.124091256,153.0
62.150351821,135.0
62.176612386,142.0
62.202872951,143.0
62.229133516,141.0
62.255394081,144.0
62.281654646,155.0
62.307915211,146.0
62.334175776,142.0
62.360436341,148.0
62.386696906,154.0
62.412957471,150.0
62.439218036,132.0
62.465478601,144.0
62.491739166,144.0
62.517999731,164.0
62.544260296,158.0
62.570520861,172.0
62.596781426,159.0
62.623041991,176.0
62.649302556,156.0
62.675563121,142.0
62.701823686,153.0
62.728084251,161.0
62.754344816,151.0
62.780605381,130.0
62.806865947,160.0
62.833126512,116.0
62.859387077,174.0
62.885647642,151.0
62.911908207,125.0
62.938168772,119.0
62.964429337,141.0
62.990689902,134.0
63.016950467,162.0
63.043211032,145.0
63.069471597,144.0
63.095732162,158.0
63.121992727,147.0
63.148253292,131.0
63.174513857,152.0
63.200774422,145.0
63.227034987,151.0
63.253295552,132.0
63.279556117,158.0
63.305816682,147.0
63.332077247,152.0
63.358337812,136.0
63.384598377,150.0
63.410858942,129.0
63.437119507,143.0
63.463380072,128.0
63.489640637,131.0
63.515901202,118.0
63.542161767,164.0
63.568422332,153.0
63.594682897,165.0
63.620943462,139.0
63.647204027,149.0
63.673464592,159.0
63.699725157,147.0
63.725985722,136.0
63.752246287,146.0
63.778506852,141.0
63.804767417,135.0
63.831027982,167.0
63.857288547,155.0
63.883549112,131.0
63.909809677,159.0
63.936070242,141.0
63.962330807,132.0
63.988591372,144.0
64.014851937,138.0
64.041112502,147.0
64.067373067,125.0
64.093633632,158.0
64.119894197,148.0
64.146154762,136.0
64.172415327,185.0
64.198675892,159.0
64.224936457,150.0
64.251197022,149.0
64.277457587,153.0
64.303718152,159.0
64.329978717,156.0
64.356239282,128.0
64.382499847,147.0
64.408760412,131.0
64.435020977,137.0
64.461281542,145.0
64.487542107,145.0
64.513802672,175.0
64.540063237,182.0
64.566323802,168.0
64.592584367,148.0
64.618844932,145.0
64.645105497,131.0
64.671366062,147.0
64.697626627,139.0
64.723887192,167.0
64.750147757,165.0
64.776408322,176.0
64.802668887,146.0
64.828929452,127.0
64.855190017,166.0
64.881450582,142.0
64.907711147,161.0
64.933971712,151.0
64.960232277,140.0
64.986492842,150.0
65.012753407,146.0
65.039013972,135.0
65.065274537,147.0
65.091535102,137.0
65.117795667,184.0
65.144056232,176.0
65.170316797,179.0
65.196577362,175.0
65.222837927,168.0
65.249098492,148.0
65.275359057,179.0
65.301619622,204.0
65.327880187,176.0
65.354140752,200.0
65.380401317,212.0
65.406661882,217.0
65.432922447,219.0
65.459183012,232.0
65.485443577,248.0
65.511704142,302.0
65.537964707,352.0
65.564225272,285.0
65.590485837,370.0
65.616746402,424.0
65.643006967,523.0
65.669267532,676.0
65.695528097,837.0
65.721788662,1090.0
65.748049227,1406.0
65.774309792,1730.0
65.800570357,1944.0
65.826830922,1890.0
65.853091487,1760.0
65.879352052,1605.0
65.905612617,1631.0
65.931873182,1677.0
65.958133747,1721.0
65.984394312,1800.0
66.010654878,1734.0
66.036915443,1541.0
66.063176008,1522.0
66.089436573,1440.0
66.115697138,1350.0
66.141957703,1327.0
66.168218268,1173.0
66.194478833,1083.0
66.220739398,829.0
66.246999963,765.0
66.273260528,675.0
66.299521093,700.0
66.325781658,624.0
66.352042223,588.0
66.378302788,431.0
66.404563353,350.0
66.430823918,312.0
66.457084483,252.0
66.483345048,240.0
66.509605613,209.0
66.535866178,199.0
66.562126743,192.0
66.588387308,187.0
66.614647873,189.0
66.640908438,166.0
66.667169003,173.0
66.693429568,154.0
66.719690133,199.0
66.745950698,153.0
66.772211263,154.0
66.798471828,168.0
66.824732393,169.0
66.850992958,166.0
66.877253523,141.0
66.903514088,146.0
66.929774653,144.0
66.956035218,152.0
66.982295783,163.0
67.008556348,178.0
67.034816913,142.0
67.061077478,144.0
67.087338043,149.0
67.113598608,164.0
67.139859173,133.0
67.166119738,127.0
67.192380303,134.0
67.218640868,147.0
67.244901433,132.0
67.271161998,133.0
67.297422563,145.0
67.323683128,141.0
67.349943693,143.0
67.376204258,142.0
67.402464823,157.0
67.428725388,133.0
67.454985953,160.0
67.481246518,131.0
67.507507083,132.0
67.533767648,137.0
67.560028213,136.0
67.586288778,125.0
67.612549343,124.0
67.638809908,140.0
67.665070473,163.0
67.691331038,142.0
67.717591603,146.0
67.743852168,132.0
67.770112733,122.0
67.796373298,146.0
67.822633863,134.0
67.848894428,149.0
67.875154993,135.0
67.901415558,135.0
67.927676123,125.0
67.953936688,127.0
67.980197253,132.0
68.006457818,135.0
68.032718383,117.0
68.058978948,142.0
68.085239513,145.0
68.111500078,135.0
68.137760643,152.0
68.164021208,136.0
68.190281773,142.0
68.216542338,134.0
68.242802903,130.0
68.269063468,147.0
68.295324033,143.0
68.321584598,136.0
68.347845163,127.0
68.374105728,169.0
68.400366293,153.0
68.426626858,141.0
68.452887423,153.0
68.479147988,150.0
68.505408553,151.0
68.531669118,147.0
68.557929683,164.0
68.584190248,123.0
68.610450813,168.0
68.636711378,132.0
68.662971943,126.0
68.689232508,120.0
68.715493073,125.0
68.741753638,130.0
68.768014203,141.0
68.794274768,141.0
68.820535333,120.0
68.846795898,139.0
68.873056463,129.0
68.899317028,143.0
68.925577593,129.0
68.951838158,133.0
68.978098723,135.0
69.004359288,144.0
69.030619853,130.0
69.056880418,143.0
69.083140983,131.0
69.109401548,123.0
69.135662113,151.0
69.161922678,130.0
69.188183243,126.0
69.214443809,131.0
69.240704374,139.0
69.266964939,157.0
69.293225504,124.0
69.319486069,129.0
69.345746634,150.0
69.372007199,129.0
69.398267764,124.0
69.424528329,125.0
69.450788894,116.0
69.477049459,136.0
69.503310024,134.0
69.529570589,137.0
69.555831154,145.0
69.582091719,147.0
69.608352284,144.0
69.634612849,136.0
69.660873414,133.0
69.687133979,135.0
69.713394544,146.0
69.739655109,154.0
69.765915674,138.0
69.792176239,133.0
69.818436804,158.0
69.844697369,178.0
69.870957934,186.0
69.897218499,170.0
69.923479064,201.0
69.949739629,183.0
69.976000194,197.0
70.002260759,178.0
70.028521324,193.0
70.054781889,177.0
70.081042454,174.0
70.107303019,185.0
70.133563584,226.0
70.159824149,229.0
70.186084714,234.0
70.212345279,235.0
70.238605844,257.0
70.264866409,277.0
70.291126974,327.0
70.317387539,399.0
70.343648104,473.0
70.369908669,566.0
70.396169234,622.0
70.422429799,605.0
70.448690364,542.0
70.474950929,514.0
70.501211494,498.0
70.527472059,529.0
70.553732624,554.0
70.579993189,584.0
70.606253754,569.0
70.632514319,558.0
70.658774884,524.0
70.685035449,466.0
70.711296014,436.0
70.737556579,394.0
70.763817144,337.0
70.790077709,327.0
70.816338274,300.0
70.842598839,256.0
70.868859404,289.0
70.895119969,225.0
70.921380534,223.0
70.947641099,201.0
70.973901664,187.0
71.000162229,198.0
71.026422794,159.0
71.052683359,168.0
71.078943924,139.0
71.105204489,143.0
71.131465054,135.0
71.157725619,134.0
71.183986184,155.0
71.210246749,145.0
71.236507314,144.0
71.262767879,115.0
71.289028444,131.0
71.315289009,145.0
71.341549574,109.0
71.367810139,119.0
71.394070704,129.0
71.420331269,126.0
71.446591834,135.0
71.472852399,139.0
71.499112964,142.0
71.525373529,140.0
71.551634094,131.0
71.577894659,121.0
71.604155224,119.0
71.630415789,105.0
71.656676354,139.0
71.682936919,113.0
71.709197484,127.0
71.735458049,152.0
71.761718614,113.0
71.787979179,141.0
71.814239744,108.0
71.840500309,135.0
71.866760874,135.0
71.893021439,115.0
71.919282004,150.0
71.945542569,122.0
71.971803134,126.0
71.998063699,123.0
72.024324264,137.0
72.050584829,122.0
72.076845394,124.0
72.103105959,138.0
72.129366524,118.0
72.155627089,120.0
72.181887654,143.0
72.208148219,124.0
72.234408784,117.0
72.260669349,135.0
72.286929914,155.0
72.313190479,135.0
72.339451044,123.0
72.365711609,118.0
72.391972174,145.0
72.418232740,106.0
72.444493305,131.0
72.470753870,110.0
72.497014435,134.0
72.523275000,124.0
72.549535565,145.0
72.575796130,101.0
72.602056695,140.0
72.628317260,129.0
72.654577825,134.0
72.680838390,128.0
72.707098955,110.0
72.733359520,126.0
72.759620085,146.0
72.785880650,142.0
72.812141215,121.0
72.838401780,138.0
72.864662345,134.0
72.890922910,151.0
72.917183475,119.0
72.943444040,143.0
72.969704605,139.0
72.995965170,143.0
73.022225735,114.0
73.048486300,131.0
73.074746865,120.0
73.101007430,123.0
73.127267995,126.0
73.153528560,113.0
73.179789125,141.0
73.206049690,114.0
73.232310255,134.0
73.258570820,122.0
73.284831385,125.0
73.311091950,117.0
73.337352515,122.0
73.363613080,115.0
73.389873645,112.0
73.416134210,123.0
73.442394775,118.0
73.468655340,153.0
73.494915905,155.0
73.521176470,133.0
73.547437035,139.0
73.573697600,129.0
73.599958165,141.0
73.626218730,106.0
73.652479295,112.0
73.678739860,131.0
73.705000425,149.0
73.731260990,120.0
73.757521555,115.0
73.783782120,127.0
73.810042685,166.0
73.836303250,130.0
73.862563815,112.0
73.888824380,142.0
73.915084945,135.0
73.941345510,130.0
73.967606075,148.0
73.993866640,143.0
74.020127205,145.0
74.046387770,152.0
74.072648335,177.0
74.098908900,162.0
74.125169465,156.0
74.151430030,154.0
74.177690595,176.0
74.203951160,186.0
74.230211725,180.0
74.256472290,236.0
74.282732855,207.0
74.308993420,281.0
74.335253985,332.0
74.361514550,480.0
74.387775115,497.0
74.414035680,511.0
74.440296245,571.0
74.466556810,524.0
74.492817375,547.0
74.519077940,548.0
74.545338505,536.0
74.571599070,549.0
74.597859635,659.0
74.624120200,653.0
74.650380765,647.0
74.676641330,706.0
74.702901895,633.0
74.729162460,613.0
74.755423025,671.0
74.781683590,630.0
74.807944155,603.0
74.834204720,628.0
74.860465285,613.0
74.886725850,629.0
74.912986415,708.0
74.939246980,686.0
74.965507545,749.0
74.991768110,809.0
75.018028675,896.0
75.044289240,898.0
75.070549805,972.0
75.096810370,1051.0
75.123070935,1167.0
75.149331500,1222.0
75.175592065,1140.0
75.201852630,1061.0
75.228113195,1035.0
75.254373760,882.0
75.280634325,809.0
75.306894890,818.0
75.333155455,708.0
75.359416020,684.0
75.385676585,693.0
75.411937150,557.0
75.438197715,503.0
75.464458280,437.0
75.490718845,403.0
75.516979410,311.0
75.543239975,246.0
75.569500540,224.0
75.595761106,185.0
75.622021671,194.0
75.648282236,186.0
75.674542801,148.0
75.700803366,157.0
75.727063931,149.0
75.753324496,176.0
75.779585061,127.0
75.805845626,151.0
75.832106191,163.0
75.858366756,166.0
75.884627321,137.0
75.910887886,125.0
75.937148451,122.0
75.963409016,140.0
75.989669581,126.0
76.015930146,118.0
76.042190711,144.0
76.068451276,142.0
76.094711841,111.0
76.120972406,146.0
76.147232971,142.0
76.173493536,117.0
76.199754101,109.0
76.226014666,136.0
76.252275231,123.0
76.278535796,142.0
76.304796361,154.0
76.331056926,121.0
76.357317491,132.0
76.383578056,119.0
76.409838621,125.0
76.436099186,154.0
76.462359751,157.0
76.488620316,143.0
76.514880881,129.0
76.541141446,110.0
76.567402011,135.0
76.593662576,140.0
76.619923141,143.0
76.646183706,112.0
76.672444271,127.0
76.698704836,118.0
76.724965401,127.0
76.751225966,115.0
76.777486531,119.0
76.803747096,128.0
76.830007661,124.0
76.856268226,135.0
76.882528791,126.0
76.908789356,115.0
76.935049921,141.0
76.961310486,158.0
76.987571051,138.0
77.013831616,127.0
77.040092181,110.0
77.066352746,115.0
77.092613311,140.0
77.118873876,139.0
77.145134441,135.0
77.171395006,147.0
77.197655571,123.0
77.223916136,108.0
77.250176701,138.0
77.276437266,122.0
77.302697831,140.0
77.328958396,138.0
77.355218961,130.0
77.381479526,119.0
77.407740091,119.0
77.434000656,106.0
77.460261221,126.0
77.486521786,108.0
77.512782351,103.0
77.539042916,138.0
77.565303481,129.0
77.591564046,113.0
77.617824611,134.0
77.644085176,114.0
77.670345741,115.0
77.696606306,101.0
77.722866871,119.0
77.749127436,110.0
77.775388001,119.0
77.801648566,105.0
77.827909131,123.0
77.854169696,121.0
77.880430261,137.0
77.906690826,101.0
77.932951391,116.0
77.959211956,114.0
77.985472521,126.0
78.011733086,104.0
78.037993651,129.0
78.064254216,119.0
78.090514781,113.0
78.116775346,120.0
78.143035911,117.0
78.169296476,106.0
78.195557041,121.0
78.221817606,131.0
78.248078171,115.0
78.274338736,121.0
78.300599301,128.0
78.326859866,114.0
78.353120431,143.0
78.379380996,133.0
78.405641561,141.0
78.431902126,128.0
78.458162691,139.0
78.484423256,122.0
78.510683821,159.0
78.536944386,153.0
78.563204951,122.0
78.589465516,160.0
78.615726081,169.0
78.641986646,169.0
78.668247211,178.0
78.694507776,201.0
78.720768341,220.0
78.747028906,288.0
78.773289471,288.0
78.799550037,313.0
78.825810602,298.0
78.852071167,318.0
78.878331732,350.0
78.904592297,338.0
78.930852862,316.0
78.957113427,358.0
78.983373992,367.0
79.009634557,390.0
79.035895122,415.0
79.062155687,397.0
79.088416252,409.0
79.114676817,371.0
79.140937382,407.0
79.167197947,420.0
79.193458512,358.0
79.219719077,348.0
79.245979642,453.0
79.272240207,384.0
79.298500772,413.0
79.324761337,464.0
79.351021902,492.0
79.377282467,539.0
79.403543032,591.0
79.429803597,661.0
79.456064162,686.0
79.482324727,704.0
79.508585292,632.0
79.534845857,569.0
79.561106422,465.0
79.587366987,416.0
79.613627552,449.0
79.639888117,402.0
79.666148682,409.0
79.692409247,391.0
79.718669812,440.0
79.744930377,370.0
79.771190942,326.0
79.797451507,271.0
79.823712072,203.0
79.849972637,205.0
79.876233202,173.0
79.902493767,145.0
79.928754332,150.0
79.955014897,136.0
79.981275462,121.0
80.007536027,135.0
80.033796592,141.0
80.060057157,128.0
80.086317722,106.0
80.112578287,128.0
80.138838852,126.0
80.165099417,126.0
80.191359982,121.0
80.217620547,120.0
80.243881112,118.0
80.270141677,118.0
80.296402242,129.0
80.322662807,127.0
80.348923372,143.0
80.375183937,140.0
80.401444502,109.0
80.427705067,101.0
80.453965632,126.0
80.480226197,114.0
80.506486762,110.0
80.532747327,109.0
80.559007892,110.0
80.585268457,102.0
80.611529022,129.0
80.637789587,122.0
80.664050152,97.0
80.690310717,120.0
80.716571282,101.0
80.742831847,110.0
80.769092412,110.0
80.795352977,101.0
80.821613542,112.0
80.847874107,126.0
80.874134672,92.0
80.900395237,115.0
80.926655802,124.0
80.952916367,121.0
80.979176932,106.0
81.005437497,103.0
81.031698062,128.0
81.057958627,123.0
81.084219192,117.0
81.110479757,92.0
81.136740322,102.0
81.163000887,127.0
81.189261452,138.0
81.215522017,110.0
81.241782582,109.0
81.268043147,109.0
81.294303712,129.0
81.320564277,87.0
81.346824842,119.0
81.373085407,129.0
81.399345972,124.0
81.425606537,116.0
81.451867102,104.0
81.478127667,97.0
81.504388232,121.0
81.530648797,114.0
81.556909362,115.0
81.583169927,118.0
81.609430492,131.0
81.635691057,127.0
81.661951622,115.0
81.688212187,91.0
81.714472752,110.0
81.740733317,94.0
81.766993882,97.0
81.793254447,113.0
81.819515012,113.0
81.845775577,95.0
81.872036142,122.0
81.898296707,124.0
81.924557272,113.0
81.950817837,101.0
81.977078402,117.0
82.003338968,137.0
82.029599533,117.0
82.055860098,116.0
82.082120663,97.0
82.108381228,128.0
82.134641793,103.0
82.160902358,108.0
82.187162923,107.0
82.213423488,114.0
82.239684053,112.0
82.265944618,110.0
82.292205183,124.0
82.318465748,119.0
82.344726313,117.0
82.370986878,123.0
82.397247443,110.0
82.423508008,109.0
82.449768573,144.0
82.476029138,110.0
82.502289703,116.0
82.528550268,108.0
82.554810833,110.0
82.581071398,99.0
82.607331963,95.0
82.633592528,119.0
82.659853093,104.0
82.686113658,92.0
82.712374223,121.0
82.738634788,117.0
82.764895353,136.0
82.791155918,121.0
82.817416483,134.0
82.843677048,119.0
82.869937613,129.0
82.896198178,117.0
82.922458743,121.0
82.948719308,138.0
82.974979873,129.0
83.001240438,130.0
83.027501003,131.0
83.053761568,127.0
83.080022133,119.0
83.106282698,138.0
83.132543263,129.0
83.158803828,148.0
83.185064393,132.0
83.211324958,180.0
83.237585523,157.0
83.263846088,192.0
83.290106653,182.0
83.316367218,202.0
83.342627783,282.0
83.368888348,296.0
83.395148913,360.0
83.421409478,488.0
83.447670043,572.0
83.473930608,706.0
83.500191173,814.0
83.526451738,850.0
83.552712303,877.0
83.578972868,777.0
83.605233433,682.0
83.631493998,543.0
83.657754563,492.0
83.684015128,477.0
83.710275693,474.0
83.736536258,490.0
83.762796823,514.0
83.789057388,538.0
83.815317953,511.0
83.841578518,421.0
83.867839083,370.0
83.894099648,295.0
83.920360213,279.0
83.946620778,242.0
83.972881343,196.0
83.999141908,179.0
84.025402473,152.0
84.051663038,148.0
84.077923603,143.0
84.104184168,129.0
84.130444733,133.0
84.156705298,137.0
84.182965863,115.0
84.209226428,116.0
84.235486993,127.0
84.261747558,116.0
84.288008123,128.0
84.314268688,109.0
84.340529253,111.0
84.366789818,111.0
84.393050383,103.0
84.419310948,114.0
84.445571513,102.0
84.471832078,125.0
84.498092643,110.0
84.524353208,104.0
84.550613773,122.0
84.576874338,104.0
84.603134903,109.0
84.629395468,109.0
84.655656033,111.0
84.681916598,105.0
84.708177163,86.0
84.734437728,124.0
84.760698293,99.0
84.786958858,106.0
84.813219423,103.0
84.839479988,116.0
84.865740553,109.0
84.892001118,106.0
84.918261683,114.0
84.944522248,101.0
84.970782813,82.0
84.997043378,100.0
85.023303943,102.0
85.049564508,98.0
85.075825073,103.0
85.102085638,100.0
85.128346203,115.0
85.154606768,114.0
85.180867333,97.0
85.207127899,116.0
85.233388464,111.0
85.259649029,116.0
85.285909594,111.0
85.312170159,98.0
85.338430724,100.0
85.364691289,114.0
85.390951854,102.0
85.417212419,115.0
85.443472984,109.0
85.469733549,122.0
85.495994114,99.0
85.522254679,105.0
85.548515244,82.0
85.574775809,86.0
85.601036374,95.0
85.627296939,116.0
85.653557504,108.0
85.679818069,92.0
85.706078634,106.0
85.732339199,117.0
85.758599764,101.0
85.784860329,117.0
85.811120894,102.0
85.837381459,126.0
85.863642024,106.0
85.889902589,103.0
85.916163154,104.0
85.942423719,122.0
85.968684284,98.0
85.994944849,102.0
86.021205414,104.0
86.047465979,96.0
86.073726544,117.0
86.099987109,117.0
86.126247674,107.0
86.152508239,116.0
86.178768804,89.0
86.205029369,103.0
86.231289934,115.0
86.257550499,120.0
86.283811064,119.0
86.310071629,109.0
86.336332194,95.0
86.362592759,124.0
86.388853324,98.0
86.415113889,125.0
86.441374454,103.0
86.467635019,92.0
86.493895584,127.0
86.520156149,98.0
86.546416714,115.0
86.572677279,103.0
86.598937844,107.0
86.625198409,100.0
86.651458974,120.0
86.677719539,102.0
86.703980104,110.0
86.730240669,121.0
86.756501234,113.0
86.782761799,116.0
86.809022364,100.0
86.835282929,107.0
86.861543494,121.0
86.887804059,95.0
86.914064624,118.0
86.940325189,101.0
86.966585754,115.0
86.992846319,107.0
87.019106884,122.0
87.045367449,119.0
87.071628014,110.0
87.097888579,116.0
87.124149144,105.0
87.150409709,112.0
87.176670274,146.0
87.202930839,124.0
87.229191404,124.0
87.255451969,136.0
87.281712534,132.0
87.307973099,148.0
87.334233664,154.0
87.360494229,160.0
87.386754794,170.0
87.413015359,193.0
87.439275924,176.0
87.465536489,176.0
87.491797054,188.0
87.518057619,183.0
87.544318184,169.0
87.570578749,177.0
87.596839314,214.0
87.623099879,210.0
87.649360444,199.0
87.675621009,214.0
87.701881574,220.0
87.728142139,252.0
87.754402704,259.0
87.780663269,226.0
87.806923834,277.0
87.833184399,259.0
87.859444964,247.0
87.885705529,253.0
87.911966094,229.0
87.938226659,237.0
87.964487224,229.0
87.990747789,226.0
88.017008354,222.0
88.043268919,237.0
88.069529484,245.0
88.095790049,252.0
88.122050614,253.0
88.148311179,244.0
88.174571744,213.0
88.200832309,212.0
88.227092874,195.0
88.253353439,154.0
88.279614004,163.0
88.305874569,167.0
88.332135134,162.0
88.358395699,169.0
88.384656264,163.0
88.410916830,169.0
88.437177395,186.0
88.463437960,154.0
88.489698525,143.0
88.515959090,115.0
88.542219655,132.0
88.568480220,115.0
88.594740785,121.0
88.621001350,116.0
88.647261915,115.0
88.673522480,117.0
88.699783045,114.0
88.726043610,96.0
88.752304175,114.0
88.778564740,86.0
88.804825305,121.0
88.831085870,120.0
88.857346435,126.0
88.883607000,131.0
88.909867565,106.0
88.936128130,112.0
88.962388695,96.0
88.988649260,119.0
89.014909825,112.0
89.041170390,111.0
89.067430955,107.0
89.093691520,135.0
89.119952085,103.0
89.146212650,103.0
89.172473215,112.0
89.198733780,116.0
89.224994345,96.0
89.251254910,141.0
89.277515475,119.0
89.303776040,82.0
89.330036605,103.0
89.356297170,116.0
89.382557735,100.0
89.408818300,119.0
89.435078865,131.0
89.461339430,110.0
89.487599995,114.0
89.513860560,92.0
89.540121125,95.0
89.566381690,119.0
89.592642255,122.0
89.618902820,102.0
89.645163385,93.0
89.671423950,91.0
89.697684515,122.0
89.723945080,115.0
89.750205645,103.0
89.776466210,107.0
89.802726775,105.0
89.828987340,106.0
89.855247905,107.0
89.881508470,105.0
89.907769035,103.0
89.934029600,92.0
89.960290165,122.0
89.986550730,84.0
