[Measurement conditions]
Sample identification,
Comment - 1,"Configuration=Flat sample stage, Owner=User-1, Creation date=9/4/2017 1:38:11 PM"
Comment - 2,"Goniometer=PW3050/60 (Theta/Theta); Minimum step size 2Theta:0.001; Minimum step size Omega:0.001"
Comment - 3,"Sample stage=PW3071/xx Bracket"
Comment - 4,"Diffractometer system=XPERT-PRO"
Comment - 5,"Measurement program=C:\PANalytical\Data Collector\Programs\KTH_FSS.xrdmp, Identifier={66F37155-83A8-48B8-A400-FEDCA643D064}"
Anode material,Cu
K-Alpha1 wavelength,1.5405980
K-Alpha2 wavelength,1.5444260
Ratio K-Alpha2/K-Alpha1,0.500
Divergence slit,Fixed,0.38mm
Monochromator used,NO
Generator voltage, 40
Tube current, 30
File date and time,03/Jul/2020 12:45
Unit cell,
h k l, 0 0 0
Scan axis,Gonio
Scan range,10.009999997,89.999681013
Scan step size,0.0262606
No. of points, 3046
Scan type,CONTINUOUS
Time per step,126.990
[Scan points]
Angle,Intensity
10.023130280,1215.0
10.049390845,1183.0
10.075651410,1221.0
10.101911975,1203.0
10.128172540,1255.0
10.154433105,1197.0
10.180693670,1231.0
10.206954235,1214.0
10.233214800,1301.0
10.259475365,1250.0
10.285735930,1202.0
10.311996495,1262.0
10.338257060,1193.0
10.364517625,1246.0
10.390778190,1282.0
10.417038755,1140.0
10.443299320,1248.0
10.469559885,1270.0
10.495820450,1211.0
10.522081015,1252.0
10.548341580,1259.0
10.574602145,1189.0
10.600862710,1270.0
10.627123275,1239.0
10.653383840,1140.0
10.679644405,1219.0
10.705904970,1160.0
10.732165535,1206.0
10.758426100,1209.0
10.784686665,1239.0
10.810947230,1167.0
10.837207795,1166.0
10.863468360,1211.0
10.889728925,1208.0
10.915989490,1213.0
10.942250055,1175.0
10.968510620,1170.0
10.994771185,1177.0
11.021031750,1231.0
11.047292315,1120.0
11.073552880,1208.0
11.099813445,1198.0
11.126074010,1166.0
11.152334575,1158.0
11.178595140,1164.0
11.204855705,1169.0
11.231116270,1208.0
11.257376835,1193.0
11.283637400,1171.0
11.309897965,1242.0
11.336158530,1142.0
11.362419095,1097.0
11.388679660,1156.0
11.414940225,1100.0
11.441200790,1156.0
11.467461355,1131.0
11.493721920,1145.0
11.519982485,1180.0
11.546243050,1190.0
11.572503615,1132.0
11.598764180,1129.0
11.625024746,1122.0
11.651285311,1081.0
11.677545876,1123.0
11.703806441,1100.0
11.730067006,1141.0
11.756327571,1175.0
11.782588136,1080.0
11.808848701,1143.0
11.835109266,1055.0
11.861369831,1172.0
11.887630396,1087.0
11.913890961,1073.0
11.940151526,1164.0
11.966412091,1097.0
11.992672656,1120.0
12.018933221,1085.0
12.045193786,1101.0
12.071454351,1145.0
12.097714916,1119.0
12.123975481,1097.0
12.150236046,1096.0
12.176496611,1099.0
12.202757176,1087.0
12.229017741,1125.0
12.255278306,1068.0
12.281538871,1071.0
12.307799436,1147.0
12.334060001,1079.0
12.360320566,1127.0
12.386581131,1133.0
12.412841696,1104.0
12.439102261,1069.0
12.465362826,1123.0
12.491623391,1071.0
12.517883956,1108.0
12.544144521,1085.0
12.570405086,1113.0
12.596665651,1060.0
12.622926216,1107.0
12.649186781,1130.0
12.675447346,1105.0
12.701707911,1031.0
12.727968476,1089.0
12.754229041,1063.0
12.780489606,1044.0
12.806750171,1077.0
12.833010736,1097.0
12.859271301,1008.0
12.885531866,1062.0
12.911792431,983.0
12.938052996,1068.0
12.964313561,1068.0
12.990574126,1053.0
13.016834691,1050.0
13.043095256,1038.0
13.069355821,1087.0
13.095616386,1069.0
13.121876951,1032.0
13.148137516,1030.0
13.174398081,1003.0
13.200658646,996.0
13.226919211,1059.0
13.253179776,1011.0
13.279440341,1073.0
13.305700906,1118.0
13.331961471,1021.0
13.358222036,1057.0
13.384482601,982.0
13.410743166,997.0
13.437003731,1029.0
13.463264296,995.0
13.489524861,1069.0
13.515785426,1040.0
13.542045991,994.0
13.568306556,1022.0
13.594567121,979.0
13.620827686,1052.0
13.647088251,1051.0
13.673348816,1027.0
13.699609381,1015.0
13.725869946,1036.0
13.752130511,1089.0
13.778391076,1026.0
13.804651641,1034.0
13.830912206,1034.0
13.857172771,996.0
13.883433336,993.0
13.909693901,975.0
13.935954466,991.0
13.962215031,1008.0
13.988475596,991.0
14.014736161,959.0
14.040996726,989.0
14.067257291,954.0
14.093517856,1060.0
14.119778421,1001.0
14.146038986,965.0
14.172299551,1012.0
14.198560116,982.0
14.224820681,973.0
14.251081246,971.0
14.277341811,968.0
14.303602376,996.0
14.329862941,986.0
14.356123506,968.0
14.382384071,986.0
14.408644636,982.0
14.434905201,999.0
14.461165766,973.0
14.487426331,952.0
14.513686896,962.0
14.539947461,960.0
14.566208026,982.0
14.592468591,1047.0
14.618729156,984.0
14.644989721,934.0
14.671250286,1029.0
14.697510851,945.0
14.723771416,950.0
14.750031981,1000.0
14.776292546,1000.0
14.802553111,978.0
14.828813677,947.0
14.855074242,960.0
14.881334807,901.0
14.907595372,892.0
14.933855937,913.0
14.960116502,928.0
14.986377067,895.0
15.012637632,949.0
15.038898197,947.0
15.065158762,923.0
15.091419327,937.0
15.117679892,963.0
15.143940457,922.0
15.170201022,940.0
15.196461587,844.0
15.222722152,936.0
15.248982717,876.0
15.275243282,924.0
15.301503847,873.0
15.327764412,929.0
15.354024977,955.0
15.380285542,916.0
15.406546107,899.0
15.432806672,902.0
15.459067237,946.0
15.485327802,921.0
15.511588367,865.0
15.537848932,886.0
15.564109497,867.0
15.590370062,872.0
15.616630627,856.0
15.642891192,897.0
15.669151757,971.0
15.695412322,883.0
15.721672887,851.0
15.747933452,944.0
15.774194017,930.0
15.800454582,914.0
15.826715147,910.0
15.852975712,855.0
15.879236277,828.0
15.905496842,880.0
15.931757407,844.0
15.958017972,900.0
15.984278537,912.0
16.010539102,933.0
16.036799667,823.0
16.063060232,901.0
16.089320797,873.0
16.115581362,875.0
16.141841927,853.0
16.168102492,867.0
16.194363057,825.0
16.220623622,884.0
16.246884187,871.0
16.273144752,820.0
16.299405317,897.0
16.325665882,843.0
16.351926447,860.0
16.378187012,835.0
16.404447577,846.0
16.430708142,858.0
16.456968707,842.0
16.483229272,891.0
16.509489837,894.0
16.535750402,830.0
16.562010967,848.0
16.588271532,843.0
16.614532097,846.0
16.640792662,764.0
16.667053227,837.0
16.693313792,725.0
16.719574357,888.0
16.745834922,897.0
16.772095487,890.0
16.798356052,850.0
16.824616617,858.0
16.850877182,837.0
16.877137747,813.0
16.903398312,858.0
16.929658877,808.0
16.955919442,832.0
16.982180007,817.0
17.008440572,805.0
17.034701137,815.0
17.060961702,793.0
17.087222267,792.0
17.113482832,772.0
17.139743397,803.0
17.166003962,800.0
17.192264527,805.0
17.218525092,776.0
17.244785657,763.0
17.271046222,784.0
17.297306787,805.0
17.323567352,765.0
17.349827917,804.0
17.376088482,680.0
17.402349047,747.0
17.428609612,791.0
17.454870177,761.0
17.481130742,824.0
17.507391307,738.0
17.533651872,778.0
17.559912437,821.0
17.586173002,843.0
17.612433567,782.0
17.638694132,755.0
17.664954697,804.0
17.691215262,756.0
17.717475827,801.0
17.743736392,771.0
17.769996957,775.0
17.796257522,781.0
17.822518087,775.0
17.848778652,772.0
17.875039217,776.0
17.901299782,793.0
17.927560347,842.0
17.953820912,791.0
17.980081477,728.0
18.006342042,791.0
18.032602608,792.0
18.058863173,763.0
18.085123738,805.0
18.111384303,761.0
18.137644868,746.0
18.163905433,783.0
18.190165998,832.0
18.216426563,759.0
18.242687128,735.0
18.268947693,739.0
18.295208258,732.0
18.321468823,798.0
18.347729388,779.0
18.373989953,693.0
18.400250518,704.0
18.426511083,747.0
18.452771648,762.0
18.479032213,762.0
18.505292778,759.0
18.531553343,729.0
18.557813908,708.0
18.584074473,745.0
18.610335038,745.0
18.636595603,724.0
18.662856168,742.0
18.689116733,733.0
18.715377298,725.0
18.741637863,740.0
18.767898428,758.0
18.794158993,775.0
18.820419558,738.0
18.846680123,721.0
18.872940688,732.0
18.899201253,689.0
18.925461818,728.0
18.951722383,733.0
18.977982948,800.0
19.004243513,678.0
19.030504078,744.0
19.056764643,742.0
19.083025208,771.0
19.109285773,719.0
19.135546338,767.0
19.161806903,690.0
19.188067468,729.0
19.214328033,701.0
19.240588598,707.0
19.266849163,687.0
19.293109728,709.0
19.319370293,689.0
19.345630858,705.0
19.371891423,683.0
19.398151988,670.0
19.424412553,724.0
19.450673118,704.0
19.476933683,703.0
19.503194248,685.0
19.529454813,710.0
19.555715378,675.0
19.581975943,682.0
19.608236508,649.0
19.634497073,664.0
19.660757638,619.0
19.687018203,695.0
19.713278768,653.0
19.739539333,706.0
19.765799898,676.0
19.792060463,626.0
19.818321028,642.0
19.844581593,664.0
19.870842158,713.0
19.897102723,661.0
19.923363288,664.0
19.949623853,643.0
19.975884418,608.0
20.002144983,701.0
20.028405548,698.0
20.054666113,655.0
20.080926678,650.0
20.107187243,631.0
20.133447808,651.0
20.159708373,770.0
20.185968938,678.0
20.212229503,669.0
20.238490068,748.0
20.264750633,681.0
20.291011198,619.0
20.317271763,661.0
20.343532328,639.0
20.369792893,632.0
20.396053458,645.0
20.422314023,691.0
20.448574588,668.0
20.474835153,610.0
20.501095718,658.0
20.527356283,611.0
20.553616848,652.0
20.579877413,632.0
20.606137978,680.0
20.632398543,606.0
20.658659108,647.0
20.684919673,617.0
20.711180238,631.0
20.737440803,628.0
20.763701368,634.0
20.789961933,594.0
20.816222498,613.0
20.842483063,631.0
20.868743628,619.0
20.895004193,618.0
20.921264758,580.0
20.947525323,588.0
20.973785888,620.0
21.000046453,609.0
21.026307018,629.0
21.052567583,658.0
21.078828148,594.0
21.105088713,592.0
21.131349278,626.0
21.157609843,652.0
21.183870408,583.0
21.210130973,595.0
21.236391539,585.0
21.262652104,604.0
21.288912669,651.0
21.315173234,618.0
21.341433799,641.0
21.367694364,605.0
21.393954929,581.0
21.420215494,623.0
21.446476059,590.0
21.472736624,579.0
21.498997189,619.0
21.525257754,598.0
21.551518319,598.0
21.577778884,602.0
21.604039449,577.0
21.630300014,627.0
21.656560579,597.0
21.682821144,603.0
21.709081709,585.0
21.735342274,615.0
21.761602839,542.0
21.787863404,601.0
21.814123969,599.0
21.840384534,574.0
21.866645099,542.0
21.892905664,608.0
21.919166229,588.0
21.945426794,548.0
21.971687359,550.0
21.997947924,620.0
22.024208489,574.0
22.050469054,570.0
22.076729619,535.0
22.102990184,539.0
22.129250749,564.0
22.155511314,585.0
22.181771879,557.0
22.208032444,606.0
22.234293009,552.0
22.260553574,609.0
22.286814139,607.0
22.313074704,568.0
22.339335269,559.0
22.365595834,548.0
22.391856399,576.0
22.418116964,569.0
22.444377529,613.0
22.470638094,537.0
22.496898659,638.0
22.523159224,567.0
22.549419789,585.0
22.575680354,531.0
22.601940919,602.0
22.628201484,595.0
22.654462049,533.0
22.680722614,577.0
22.706983179,590.0
22.733243744,582.0
22.759504309,542.0
22.785764874,600.0
22.812025439,567.0
22.838286004,560.0
22.864546569,601.0
22.890807134,615.0
22.917067699,595.0
22.943328264,617.0
22.969588829,609.0
22.995849394,616.0
23.022109959,670.0
23.048370524,707.0
23.074631089,811.0
23.100891654,859.0
23.127152219,1047.0
23.153412784,1184.0
23.179673349,1511.0
23.205933914,1876.0
23.232194479,2408.0
23.258455044,2460.0
23.284715609,2090.0
23.310976174,1642.0
23.337236739,1187.0
23.363497304,880.0
23.389757869,691.0
23.416018434,634.0
23.442278999,623.0
23.468539564,592.0
23.494800129,576.0
23.521060694,574.0
23.547321259,502.0
23.573581824,556.0
23.599842389,505.0
23.626102954,522.0
23.652363519,554.0
23.678624084,509.0
23.704884649,511.0
23.731145214,515.0
23.757405779,529.0
23.783666344,519.0
23.809926909,525.0
23.836187474,577.0
23.862448039,525.0
23.888708604,525.0
23.914969169,502.0
23.941229734,493.0
23.967490299,492.0
23.993750864,537.0
24.020011429,514.0
24.046271994,536.0
24.072532559,536.0
24.098793124,506.0
24.125053689,530.0
24.151314254,559.0
24.177574819,516.0
24.203835384,519.0
24.230095949,535.0
24.256356514,506.0
24.282617079,481.0
24.308877644,481.0
24.335138209,511.0
24.361398774,515.0
24.387659339,551.0
24.413919904,485.0
24.440180470,497.0
24.466441035,505.0
24.492701600,508.0
24.518962165,476.0
24.545222730,470.0
24.571483295,489.0
24.597743860,484.0
24.624004425,507.0
24.650264990,477.0
24.676525555,481.0
24.702786120,489.0
24.729046685,496.0
24.755307250,467.0
24.781567815,446.0
24.807828380,480.0
24.834088945,494.0
24.860349510,510.0
24.886610075,466.0
24.912870640,452.0
24.939131205,468.0
24.965391770,525.0
24.991652335,494.0
25.017912900,447.0
25.044173465,458.0
25.070434030,492.0
25.096694595,474.0
25.122955160,476.0
25.149215725,455.0
25.175476290,503.0
25.201736855,496.0
25.227997420,453.0
25.254257985,468.0
25.280518550,481.0
25.306779115,429.0
25.333039680,460.0
25.359300245,475.0
25.385560810,487.0
25.411821375,495.0
25.438081940,459.0
25.464342505,466.0
25.490603070,485.0
25.516863635,481.0
25.543124200,453.0
25.569384765,464.0
25.595645330,457.0
25.621905895,476.0
25.648166460,489.0
25.674427025,451.0
25.700687590,466.0
25.726948155,433.0
25.753208720,451.0
25.779469285,433.0
25.805729850,464.0
25.831990415,475.0
25.858250980,546.0
25.884511545,540.0
25.910772110,528.0
25.937032675,569.0
25.963293240,663.0
25.989553805,722.0
26.015814370,823.0
26.042074935,878.0
26.068335500,788.0
26.094596065,675.0
26.120856630,654.0
26.147117195,556.0
26.173377760,524.0
26.199638325,504.0
26.225898890,525.0
26.252159455,495.0
26.278420020,512.0
26.304680585,491.0
26.330941150,492.0
26.357201715,485.0
26.383462280,470.0
26.409722845,458.0
26.435983410,430.0
26.462243975,445.0
26.488504540,452.0
26.514765105,435.0
26.541025670,476.0
26.567286235,455.0
26.593546800,472.0
26.619807365,450.0
26.646067930,452.0
26.672328495,468.0
26.698589060,398.0
26.724849625,434.0
26.751110190,426.0
26.777370755,471.0
26.803631320,420.0
26.829891885,451.0
26.856152450,414.0
26.882413015,454.0
26.908673580,457.0
26.934934145,427.0
26.961194710,444.0
26.987455275,444.0
27.013715840,472.0
27.039976405,461.0
27.066236970,468.0
27.092497535,427.0
27.118758100,442.0
27.145018665,470.0
27.171279230,393.0
27.197539795,475.0
27.223800360,471.0
27.250060925,440.0
27.276321490,472.0
27.302582055,467.0
27.328842620,430.0
27.355103185,490.0
27.381363750,502.0
27.407624315,570.0
27.433884880,637.0
27.460145445,676.0
27.486406010,601.0
27.512666575,567.0
27.538927140,512.0
27.565187705,445.0
27.591448270,440.0
27.617708836,435.0
27.643969401,408.0
27.670229966,425.0
27.696490531,419.0
27.722751096,428.0
27.749011661,409.0
27.775272226,402.0
27.801532791,380.0
27.827793356,387.0
27.854053921,419.0
27.880314486,431.0
27.906575051,428.0
27.932835616,425.0
27.959096181,425.0
27.985356746,411.0
28.011617311,417.0
28.037877876,441.0
28.064138441,399.0
28.090399006,438.0
28.116659571,397.0
28.142920136,420.0
28.169180701,398.0
28.195441266,433.0
28.221701831,408.0
28.247962396,398.0
28.274222961,431.0
28.300483526,414.0
28.326744091,372.0
28.353004656,437.0
28.379265221,378.0
28.405525786,388.0
28.431786351,416.0
28.458046916,423.0
28.484307481,415.0
28.510568046,387.0
28.536828611,384.0
28.563089176,424.0
28.589349741,383.0
28.615610306,425.0
28.641870871,436.0
28.668131436,395.0
28.694392001,399.0
28.720652566,418.0
28.746913131,374.0
28.773173696,398.0
28.799434261,411.0
28.825694826,408.0
28.851955391,392.0
28.878215956,383.0
28.904476521,362.0
28.930737086,374.0
28.956997651,375.0
28.983258216,378.0
29.009518781,391.0
29.035779346,412.0
29.062039911,402.0
29.088300476,395.0
29.114561041,377.0
29.140821606,418.0
29.167082171,416.0
29.193342736,409.0
29.219603301,413.0
29.245863866,399.0
29.272124431,386.0
29.298384996,390.0
29.324645561,397.0
29.350906126,405.0
29.377166691,392.0
29.403427256,434.0
29.429687821,385.0
29.455948386,421.0
29.482208951,364.0
29.508469516,386.0
29.534730081,384.0
29.560990646,414.0
29.587251211,382.0
29.613511776,420.0
29.639772341,407.0
29.666032906,404.0
29.692293471,401.0
29.718554036,406.0
29.744814601,390.0
29.771075166,372.0
29.797335731,403.0
29.823596296,399.0
29.849856861,422.0
29.876117426,404.0
29.902377991,409.0
29.928638556,411.0
29.954899121,349.0
29.981159686,396.0
30.007420251,400.0
30.033680816,371.0
30.059941381,383.0
30.086201946,381.0
30.112462511,384.0
30.138723076,378.0
30.164983641,357.0
30.191244206,366.0
30.217504771,372.0
30.243765336,382.0
30.270025901,392.0
30.296286466,375.0
30.322547031,382.0
30.348807596,367.0
30.375068161,383.0
30.401328726,374.0
30.427589291,372.0
30.453849856,381.0
30.480110421,373.0
30.506370986,383.0
30.532631551,382.0
30.558892116,379.0
30.585152681,374.0
30.611413246,348.0
30.637673811,343.0
30.663934376,358.0
30.690194941,377.0
30.716455506,365.0
30.742716071,375.0
30.768976636,348.0
30.795237201,363.0
30.821497767,350.0
30.847758332,342.0
30.874018897,356.0
30.900279462,349.0
30.926540027,342.0
30.952800592,377.0
30.979061157,322.0
31.005321722,315.0
31.031582287,331.0
31.057842852,341.0
31.084103417,317.0
31.110363982,333.0
31.136624547,344.0
31.162885112,363.0
31.189145677,356.0
31.215406242,352.0
31.241666807,352.0
31.267927372,371.0
31.294187937,338.0
31.320448502,379.0
31.346709067,377.0
31.372969632,334.0
31.399230197,387.0
31.425490762,333.0
31.451751327,344.0
31.478011892,387.0
31.504272457,333.0
31.530533022,319.0
31.556793587,360.0
31.583054152,342.0
31.609314717,359.0
31.635575282,356.0
31.661835847,358.0
31.688096412,383.0
31.714356977,350.0
31.740617542,320.0
31.766878107,401.0
31.793138672,396.0
31.819399237,378.0
31.845659802,369.0
31.871920367,367.0
31.898180932,377.0
31.924441497,343.0
31.950702062,380.0
31.976962627,457.0
32.003223192,407.0
32.029483757,411.0
32.055744322,414.0
32.082004887,424.0
32.108265452,387.0
32.134526017,416.0
32.160786582,435.0
32.187047147,461.0
32.213307712,401.0
32.239568277,433.0
32.265828842,401.0
32.292089407,405.0
32.318349972,424.0
32.344610537,402.0
32.370871102,421.0
32.397131667,503.0
32.423392232,453.0
32.449652797,402.0
32.475913362,447.0
32.502173927,457.0
32.528434492,457.0
32.554695057,481.0
32.580955622,446.0
32.607216187,486.0
32.633476752,494.0
32.659737317,598.0
32.685997882,652.0
32.712258447,685.0
32.738519012,813.0
32.764779577,968.0
32.791040142,1183.0
32.817300707,1623.0
32.843561272,2093.0
32.869821837,2991.0
32.896082402,3941.0
32.922342967,4285.0
32.948603532,4261.0
32.974864097,4598.0
33.001124662,5016.0
33.027385227,6036.0
33.053645792,7942.0
33.079906357,10961.0
33.106166922,13909.0
33.132427487,13053.0
33.158688052,10253.0
33.184948617,9084.0
33.211209182,8383.0
33.237469747,6234.0
33.263730312,5014.0
33.289990877,4140.0
33.316251442,3159.0
33.342512007,2531.0
33.368772572,2181.0
33.395033137,1533.0
33.421293702,1022.0
33.447554267,755.0
33.473814832,723.0
33.500075397,612.0
33.526335962,604.0
33.552596527,521.0
33.578857092,483.0
33.605117657,504.0
33.631378222,434.0
33.657638787,451.0
33.683899352,424.0
33.710159917,409.0
33.736420482,393.0
33.762681047,422.0
33.788941612,365.0
33.815202177,398.0
33.841462742,373.0
33.867723307,383.0
33.893983872,369.0
33.920244437,374.0
33.946505002,406.0
33.972765567,385.0
33.999026132,385.0
34.025286698,365.0
34.051547263,357.0
34.077807828,336.0
34.104068393,364.0
34.130328958,376.0
34.156589523,352.0
34.182850088,341.0
34.209110653,327.0
34.235371218,336.0
34.261631783,351.0
34.287892348,342.0
34.314152913,344.0
34.340413478,368.0
34.366674043,356.0
34.392934608,333.0
34.419195173,330.0
34.445455738,360.0
34.471716303,327.0
34.497976868,314.0
34.524237433,330.0
34.550497998,309.0
34.576758563,315.0
34.603019128,347.0
34.629279693,371.0
34.655540258,321.0
34.681800823,362.0
34.708061388,304.0
34.734321953,309.0
34.760582518,306.0
34.786843083,342.0
34.813103648,328.0
34.839364213,328.0
34.865624778,347.0
34.891885343,363.0
34.918145908,381.0
34.944406473,375.0
34.970667038,402.0
34.996927603,463.0
35.023188168,416.0
35.049448733,393.0
35.075709298,396.0
35.101969863,336.0
35.128230428,357.0
35.154490993,332.0
35.180751558,323.0
35.207012123,301.0
35.233272688,278.0
35.259533253,281.0
35.285793818,316.0
35.312054383,320.0
35.338314948,307.0
35.364575513,271.0
35.390836078,320.0
35.417096643,317.0
35.443357208,329.0
35.469617773,313.0
35.495878338,327.0
35.522138903,332.0
35.548399468,298.0
35.574660033,296.0
35.600920598,325.0
35.627181163,323.0
35.653441728,293.0
35.679702293,333.0
35.705962858,313.0
35.732223423,343.0
35.758483988,336.0
35.784744553,295.0
35.811005118,313.0
35.837265683,304.0
35.863526248,323.0
35.889786813,334.0
35.916047378,266.0
35.942307943,321.0
35.968568508,283.0
35.994829073,328.0
36.021089638,358.0
36.047350203,371.0
36.073610768,395.0
36.099871333,402.0
36.126131898,405.0
36.152392463,321.0
36.178653028,323.0
36.204913593,371.0
36.231174158,323.0
36.257434723,320.0
36.283695288,302.0
36.309955853,292.0
36.336216418,283.0
36.362476983,312.0
36.388737548,265.0
36.414998113,263.0
36.441258678,319.0
36.467519243,290.0
36.493779808,289.0
36.520040373,273.0
36.546300938,295.0
36.572561503,337.0
36.598822068,309.0
36.625082633,249.0
36.651343198,267.0
36.677603763,282.0
36.703864328,268.0
36.730124893,268.0
36.756385458,305.0
36.782646023,270.0
36.808906588,267.0
36.835167153,301.0
36.861427718,282.0
36.887688283,323.0
36.913948848,293.0
36.940209413,345.0
36.966469978,393.0
36.992730543,421.0
37.018991108,414.0
37.045251673,403.0
37.071512238,410.0
37.097772803,363.0
37.124033368,391.0
37.150293933,395.0
37.176554498,416.0
37.202815063,429.0
37.229075629,516.0
37.255336194,518.0
37.281596759,445.0
37.307857324,412.0
37.334117889,414.0
37.360378454,375.0
37.386639019,332.0
37.412899584,298.0
37.439160149,310.0
37.465420714,278.0
37.491681279,279.0
37.517941844,282.0
37.544202409,254.0
37.570462974,290.0
37.596723539,269.0
37.622984104,298.0
37.649244669,285.0
37.675505234,279.0
37.701765799,255.0
37.728026364,245.0
37.754286929,277.0
37.780547494,276.0
37.806808059,280.0
37.833068624,278.0
37.859329189,262.0
37.885589754,260.0
37.911850319,277.0
37.938110884,272.0
37.964371449,252.0
37.990632014,299.0
38.016892579,268.0
38.043153144,279.0
38.069413709,295.0
38.095674274,274.0
38.121934839,252.0
38.148195404,273.0
38.174455969,292.0
38.200716534,234.0
38.226977099,263.0
38.253237664,307.0
38.279498229,268.0
38.305758794,272.0
38.332019359,307.0
38.358279924,231.0
38.384540489,257.0
38.410801054,295.0
38.437061619,283.0
38.463322184,267.0
38.489582749,299.0
38.515843314,314.0
38.542103879,310.0
38.568364444,238.0
38.594625009,232.0
38.620885574,273.0
38.647146139,291.0
38.673406704,259.0
38.699667269,266.0
38.725927834,292.0
38.752188399,304.0
38.778448964,272.0
38.804709529,331.0
38.830970094,388.0
38.857230659,416.0
38.883491224,471.0
38.909751789,512.0
38.936012354,508.0
38.962272919,529.0
38.988533484,563.0
39.014794049,691.0
39.041054614,735.0
39.067315179,962.0
39.093575744,1092.0
39.119836309,1166.0
39.146096874,1040.0
39.172357439,856.0
39.198618004,791.0
39.224878569,681.0
39.251139134,541.0
39.277399699,432.0
39.303660264,357.0
39.329920829,316.0
39.356181394,290.0
39.382441959,289.0
39.408702524,293.0
39.434963089,246.0
39.461223654,263.0
39.487484219,247.0
39.513744784,269.0
39.540005349,258.0
39.566265914,291.0
39.592526479,266.0
39.618787044,250.0
39.645047609,272.0
39.671308174,252.0
39.697568739,279.0
39.723829304,227.0
39.750089869,234.0
39.776350434,254.0
39.802610999,237.0
39.828871564,242.0
39.855132129,244.0
39.881392694,235.0
39.907653259,258.0
39.933913824,289.0
39.960174389,253.0
39.986434954,222.0
40.012695519,248.0
40.038956084,272.0
40.065216649,239.0
40.091477214,218.0
40.117737779,206.0
40.143998344,221.0
40.170258909,229.0
40.196519474,209.0
40.222780039,249.0
40.249040604,256.0
40.275301169,242.0
40.301561734,232.0
40.327822299,263.0
40.354082864,280.0
40.380343429,251.0
40.406603994,255.0
40.432864560,288.0
40.459125125,293.0
40.485385690,303.0
40.511646255,306.0
40.537906820,335.0
40.564167385,373.0
40.590427950,425.0
40.616688515,533.0
40.642949080,710.0
40.669209645,839.0
40.695470210,901.0
40.721730775,829.0
40.747991340,748.0
40.774251905,797.0
40.800512470,716.0
40.826773035,639.0
40.853033600,505.0
40.879294165,513.0
40.905554730,516.0
40.931815295,622.0
40.958075860,746.0
40.984336425,768.0
41.010596990,761.0
41.036857555,651.0
41.063118120,593.0
41.089378685,529.0
41.115639250,508.0
41.141899815,440.0
41.168160380,337.0
41.194420945,322.0
41.220681510,301.0
41.246942075,279.0
41.273202640,273.0
41.299463205,247.0
41.325723770,247.0
41.351984335,271.0
41.378244900,264.0
41.404505465,224.0
41.430766030,229.0
41.457026595,262.0
41.483287160,271.0
41.509547725,227.0
41.535808290,222.0
41.562068855,234.0
41.588329420,208.0
41.614589985,207.0
41.640850550,212.0
41.667111115,237.0
41.693371680,240.0
41.719632245,229.0
41.745892810,243.0
41.772153375,223.0
41.798413940,230.0
41.824674505,253.0
41.850935070,218.0
41.877195635,220.0
41.903456200,185.0
41.929716765,199.0
41.955977330,204.0
41.982237895,228.0
42.008498460,225.0
42.034759025,228.0
42.061019590,191.0
42.087280155,261.0
42.113540720,201.0
42.139801285,223.0
42.166061850,202.0
42.192322415,236.0
42.218582980,249.0
42.244843545,190.0
42.271104110,220.0
42.297364675,233.0
42.323625240,241.0
42.349885805,250.0
42.376146370,203.0
42.402406935,228.0
42.428667500,253.0
42.454928065,264.0
42.481188630,254.0
42.507449195,239.0
42.533709760,337.0
42.559970325,394.0
42.586230890,434.0
42.612491455,492.0
42.638752020,477.0
42.665012585,433.0
42.691273150,422.0
42.717533715,385.0
42.743794280,333.0
42.770054845,301.0
42.796315410,250.0
42.822575975,266.0
42.848836540,239.0
42.875097105,251.0
42.901357670,214.0
42.927618235,249.0
42.953878800,207.0
42.980139365,193.0
43.006399930,230.0
43.032660495,217.0
43.058921060,192.0
43.085181625,221.0
43.111442190,203.0
43.137702755,215.0
43.163963320,221.0
43.190223885,226.0
43.216484450,220.0
43.242745015,193.0
43.269005580,222.0
43.295266145,223.0
43.321526710,220.0
43.347787275,217.0
43.374047840,220.0
43.400308405,203.0
43.426568970,197.0
43.452829535,219.0
43.479090100,243.0
43.505350665,208.0
43.531611230,203.0
43.557871795,208.0
43.584132360,188.0
43.610392926,197.0
43.636653491,212.0
43.662914056,242.0
43.689174621,224.0
43.715435186,223.0
43.741695751,207.0
43.767956316,202.0
43.794216881,209.0
43.820477446,216.0
43.846738011,222.0
43.872998576,195.0
43.899259141,243.0
43.925519706,215.0
43.951780271,179.0
43.978040836,218.0
44.004301401,222.0
44.030561966,262.0
44.056822531,247.0
44.083083096,278.0
44.109343661,307.0
44.135604226,397.0
44.161864791,417.0
44.188125356,422.0
44.214385921,375.0
44.240646486,380.0
44.266907051,400.0
44.293167616,382.0
44.319428181,379.0
44.345688746,360.0
44.371949311,355.0
44.398209876,303.0
44.424470441,313.0
44.450731006,294.0
44.476991571,315.0
44.503252136,280.0
44.529512701,294.0
44.555773266,252.0
44.582033831,239.0
44.608294396,215.0
44.634554961,197.0
44.660815526,200.0
44.687076091,212.0
44.713336656,227.0
44.739597221,194.0
44.765857786,200.0
44.792118351,161.0
44.818378916,211.0
44.844639481,208.0
44.870900046,209.0
44.897160611,183.0
44.923421176,200.0
44.949681741,200.0
44.975942306,192.0
45.002202871,186.0
45.028463436,213.0
45.054724001,218.0
45.080984566,200.0
45.107245131,196.0
45.133505696,180.0
45.159766261,182.0
45.186026826,197.0
45.212287391,211.0
45.238547956,199.0
45.264808521,179.0
45.291069086,209.0
45.317329651,196.0
45.343590216,237.0
45.369850781,192.0
45.396111346,193.0
45.422371911,160.0
45.448632476,205.0
45.474893041,217.0
45.501153606,222.0
45.527414171,186.0
45.553674736,209.0
45.579935301,192.0
45.606195866,187.0
45.632456431,206.0
45.658716996,198.0
45.684977561,226.0
45.711238126,213.0
45.737498691,251.0
45.763759256,230.0
45.790019821,225.0
45.816280386,219.0
45.842540951,215.0
45.868801516,241.0
45.895062081,242.0
45.921322646,205.0
45.947583211,226.0
45.973843776,227.0
46.000104341,232.0
46.026364906,253.0
46.052625471,208.0
46.078886036,220.0
46.105146601,222.0
46.131407166,232.0
46.157667731,220.0
46.183928296,227.0
46.210188861,180.0
46.236449426,219.0
46.262709991,195.0
46.288970556,209.0
46.315231121,245.0
46.341491686,233.0
46.367752251,220.0
46.394012816,212.0
46.420273381,195.0
46.446533946,201.0
46.472794511,229.0
46.499055076,216.0
46.525315641,215.0
46.551576206,205.0
46.577836771,230.0
46.604097336,191.0
46.630357901,204.0
46.656618466,214.0
46.682879031,210.0
46.709139596,237.0
46.735400161,252.0
46.761660726,212.0
46.787921291,218.0
46.814181857,241.0
46.840442422,214.0
46.866702987,238.0
46.892963552,255.0
46.919224117,258.0
46.945484682,236.0
46.971745247,277.0
46.998005812,260.0
47.024266377,282.0
47.050526942,248.0
47.076787507,268.0
47.103048072,306.0
47.129308637,305.0
47.155569202,322.0
47.181829767,360.0
47.208090332,389.0
47.234350897,429.0
47.260611462,504.0
47.286872027,609.0
47.313132592,773.0
47.339393157,941.0
47.365653722,1296.0
47.391914287,1780.0
47.418174852,2725.0
47.444435417,3903.0
47.470695982,5585.0
47.496956547,6625.0
47.523217112,6302.0
47.549477677,5883.0
47.575738242,5470.0
47.601998807,4923.0
47.628259372,4212.0
47.654519937,3459.0
47.680780502,2801.0
47.707041067,2119.0
47.733301632,1324.0
47.759562197,961.0
47.785822762,646.0
47.812083327,535.0
47.838343892,476.0
47.864604457,406.0
47.890865022,369.0
47.917125587,310.0
47.943386152,306.0
47.969646717,279.0
47.995907282,267.0
48.022167847,265.0
48.048428412,271.0
48.074688977,248.0
48.100949542,252.0
48.127210107,257.0
48.153470672,215.0
48.179731237,240.0
48.205991802,260.0
48.232252367,249.0
48.258512932,234.0
48.284773497,199.0
48.311034062,218.0
48.337294627,226.0
48.363555192,223.0
48.389815757,212.0
48.416076322,249.0
48.442336887,206.0
48.468597452,202.0
48.494858017,230.0
48.521118582,206.0
48.547379147,201.0
48.573639712,209.0
48.599900277,190.0
48.626160842,244.0
48.652421407,231.0
48.678681972,203.0
48.704942537,198.0
48.731203102,244.0
48.757463667,220.0
48.783724232,235.0
48.809984797,240.0
48.836245362,232.0
48.862505927,264.0
48.888766492,303.0
48.915027057,362.0
48.941287622,422.0
48.967548187,440.0
48.993808752,431.0
49.020069317,442.0
49.046329882,520.0
49.072590447,469.0
49.098851012,439.0
49.125111577,368.0
49.151372142,349.0
49.177632707,328.0
49.203893272,296.0
49.230153837,265.0
49.256414402,238.0
49.282674967,215.0
49.308935532,243.0
49.335196097,186.0
49.361456662,203.0
49.387717227,207.0
49.413977792,198.0
49.440238357,194.0
49.466498922,196.0
49.492759487,185.0
49.519020052,178.0
49.545280617,192.0
49.571541182,189.0
49.597801747,181.0
49.624062312,186.0
49.650322877,205.0
49.676583442,182.0
49.702844007,183.0
49.729104572,174.0
49.755365137,172.0
49.781625702,194.0
49.807886267,199.0
49.834146832,155.0
49.860407397,179.0
49.886667962,212.0
49.912928527,182.0
49.939189092,200.0
49.965449657,185.0
49.991710222,204.0
50.017970788,175.0
50.044231353,163.0
50.070491918,192.0
50.096752483,186.0
50.123013048,171.0
50.149273613,179.0
50.175534178,183.0
50.201794743,179.0
50.228055308,183.0
50.254315873,174.0
50.280576438,193.0
50.306837003,199.0
50.333097568,223.0
50.359358133,193.0
50.385618698,203.0
50.411879263,180.0
50.438139828,160.0
50.464400393,196.0
50.490660958,176.0
50.516921523,210.0
50.543182088,183.0
50.569442653,171.0
50.595703218,162.0
50.621963783,150.0
50.648224348,169.0
50.674484913,180.0
50.700745478,174.0
50.727006043,169.0
50.753266608,169.0
50.779527173,162.0
50.805787738,150.0
50.832048303,184.0
50.858308868,164.0
50.884569433,171.0
50.910829998,174.0
50.937090563,186.0
50.963351128,177.0
50.989611693,166.0
51.015872258,173.0
51.042132823,165.0
51.068393388,186.0
51.094653953,149.0
51.120914518,169.0
51.147175083,173.0
51.173435648,179.0
51.199696213,176.0
51.225956778,185.0
51.252217343,169.0
51.278477908,148.0
51.304738473,167.0
51.330999038,153.0
51.357259603,154.0
51.383520168,180.0
51.409780733,170.0
51.436041298,172.0
51.462301863,176.0
51.488562428,189.0
51.514822993,179.0
51.541083558,145.0
51.567344123,191.0
51.593604688,176.0
51.619865253,157.0
51.646125818,173.0
51.672386383,186.0
51.698646948,168.0
51.724907513,183.0
51.751168078,185.0
51.777428643,189.0
51.803689208,204.0
51.829949773,187.0
51.856210338,205.0
51.882470903,177.0
51.908731468,201.0
51.934992033,184.0
51.961252598,206.0
51.987513163,234.0
52.013773728,265.0
52.040034293,242.0
52.066294858,228.0
52.092555423,251.0
52.118815988,243.0
52.145076553,255.0
52.171337118,262.0
52.197597683,260.0
52.223858248,236.0
52.250118813,256.0
52.276379378,245.0
52.302639943,271.0
52.328900508,251.0
52.355161073,221.0
52.381421638,269.0
52.407682203,235.0
52.433942768,190.0
52.460203333,184.0
52.486463898,220.0
52.512724463,173.0
52.538985028,195.0
52.565245593,143.0
52.591506158,214.0
52.617766723,177.0
52.644027288,176.0
52.670287853,167.0
52.696548418,187.0
52.722808983,163.0
52.749069548,180.0
52.775330113,215.0
52.801590678,142.0
52.827851243,174.0
52.854111808,185.0
52.880372373,165.0
52.906632938,188.0
52.932893503,185.0
52.959154068,205.0
52.985414633,179.0
53.011675198,182.0
53.037935763,195.0
53.064196328,210.0
53.090456893,203.0
53.116717458,194.0
53.142978023,203.0
53.169238588,259.0
53.195499153,285.0
53.221759719,329.0
53.248020284,386.0
53.274280849,392.0
53.300541414,325.0
53.326801979,286.0
53.353062544,319.0
53.379323109,322.0
53.405583674,339.0
53.431844239,367.0
53.458104804,356.0
53.484365369,427.0
53.510625934,437.0
53.536886499,523.0
53.563147064,508.0
53.589407629,443.0
53.615668194,392.0
53.641928759,376.0
53.668189324,362.0
53.694449889,392.0
53.720710454,330.0
53.746971019,280.0
53.773231584,263.0
53.799492149,251.0
53.825752714,230.0
53.852013279,231.0
53.878273844,195.0
53.904534409,183.0
53.930794974,187.0
53.957055539,155.0
53.983316104,205.0
54.009576669,174.0
54.035837234,173.0
54.062097799,148.0
54.088358364,166.0
54.114618929,151.0
54.140879494,153.0
54.167140059,182.0
54.193400624,181.0
54.219661189,145.0
54.245921754,179.0
54.272182319,202.0
54.298442884,250.0
54.324703449,276.0
54.350964014,260.0
54.377224579,231.0
54.403485144,219.0
54.429745709,221.0
54.456006274,224.0
54.482266839,219.0
54.508527404,257.0
54.534787969,208.0
54.561048534,237.0
54.587309099,259.0
54.613569664,253.0
54.639830229,340.0
54.666090794,448.0
54.692351359,476.0
54.718611924,493.0
54.744872489,420.0
54.771133054,406.0
54.797393619,384.0
54.823654184,379.0
54.849914749,355.0
54.876175314,325.0
54.902435879,297.0
54.928696444,231.0
54.954957009,229.0
54.981217574,233.0
55.007478139,210.0
55.033738704,187.0
55.059999269,201.0
55.086259834,189.0
55.112520399,223.0
55.138780964,226.0
55.165041529,224.0
55.191302094,237.0
55.217562659,187.0
55.243823224,190.0
55.270083789,200.0
55.296344354,179.0
55.322604919,195.0
55.348865484,201.0
55.375126049,159.0
55.401386614,183.0
55.427647179,190.0
55.453907744,154.0
55.480168309,151.0
55.506428874,163.0
55.532689439,170.0
55.558950004,136.0
55.585210569,144.0
55.611471134,145.0
55.637731699,145.0
55.663992264,142.0
55.690252829,141.0
55.716513394,160.0
55.742773959,159.0
55.769034524,163.0
55.795295089,138.0
55.821555654,122.0
55.847816219,134.0
55.874076784,174.0
55.900337349,180.0
55.926597914,144.0
55.952858479,133.0
55.979119044,136.0
56.005379609,179.0
56.031640174,148.0
56.057900739,166.0
56.084161304,130.0
56.110421869,178.0
56.136682434,120.0
56.162942999,167.0
56.189203564,129.0
56.215464129,147.0
56.241724694,149.0
56.267985259,160.0
56.294245824,157.0
56.320506389,153.0
56.346766954,146.0
56.373027519,151.0
56.399288084,146.0
56.425548650,159.0
56.451809215,137.0
56.478069780,150.0
56.504330345,139.0
56.530590910,151.0
56.556851475,155.0
56.583112040,177.0
56.609372605,164.0
56.635633170,160.0
56.661893735,162.0
56.688154300,160.0
56.714414865,159.0
56.740675430,170.0
56.766935995,152.0
56.793196560,177.0
56.819457125,144.0
56.845717690,159.0
56.871978255,145.0
56.898238820,161.0
56.924499385,174.0
56.950759950,145.0
56.977020515,170.0
57.003281080,172.0
57.029541645,154.0
57.055802210,134.0
57.082062775,147.0
57.108323340,155.0
57.134583905,155.0
57.160844470,172.0
57.187105035,156.0
57.213365600,148.0
57.239626165,183.0
57.265886730,152.0
57.292147295,145.0
57.318407860,141.0
57.344668425,154.0
57.370928990,165.0
57.397189555,137.0
57.423450120,158.0
57.449710685,158.0
57.475971250,162.0
57.502231815,186.0
57.528492380,174.0
57.554752945,139.0
57.581013510,181.0
57.607274075,171.0
57.633534640,178.0
57.659795205,136.0
57.686055770,191.0
57.712316335,181.0
57.738576900,155.0
57.764837465,160.0
57.791098030,163.0
57.817358595,149.0
57.843619160,158.0
57.869879725,177.0
57.896140290,160.0
57.922400855,163.0
57.948661420,182.0
57.974921985,181.0
58.001182550,153.0
58.027443115,163.0
58.053703680,160.0
58.079964245,143.0
58.106224810,166.0
58.132485375,177.0
58.158745940,150.0
58.185006505,134.0
58.211267070,162.0
58.237527635,144.0
58.263788200,172.0
58.290048765,160.0
58.316309330,146.0
58.342569895,193.0
58.368830460,175.0
58.395091025,186.0
58.421351590,189.0
58.447612155,202.0
58.473872720,193.0
58.500133285,172.0
58.526393850,190.0
58.552654415,194.0
58.578914980,211.0
58.605175545,245.0
58.631436110,229.0
58.657696675,297.0
58.683957240,296.0
58.710217805,345.0
58.736478370,446.0
58.762738935,555.0
58.788999500,740.0
58.815260065,988.0
58.841520630,1335.0
58.867781195,1606.0
58.894041760,1672.0
58.920302325,1594.0
58.946562890,1517.0
58.972823455,1571.0
58.999084020,1894.0
59.025344585,2200.0
59.051605150,2076.0
59.077865715,1722.0
59.104126280,1490.0
59.130386845,1404.0
59.156647410,1516.0
59.182907975,1673.0
59.209168540,1890.0
59.235429105,2183.0
59.261689670,2459.0
59.287950235,2819.0
59.314210800,2888.0
59.340471365,2886.0
59.366731930,2621.0
59.392992495,2214.0
59.419253060,1824.0
59.445513625,1723.0
59.471774190,1606.0
59.498034755,1556.0
59.524295320,1354.0
59.550555885,1003.0
59.576816450,721.0
59.603077016,550.0
59.629337581,438.0
59.655598146,333.0
59.681858711,297.0
59.708119276,241.0
59.734379841,241.0
59.760640406,231.0
59.786900971,236.0
59.813161536,222.0
59.839422101,195.0
59.865682666,216.0
59.891943231,168.0
59.918203796,164.0
59.944464361,169.0
59.970724926,174.0
59.996985491,178.0
60.023246056,144.0
60.049506621,175.0
60.075767186,187.0
60.102027751,151.0
60.128288316,172.0
60.154548881,183.0
60.180809446,153.0
60.207070011,157.0
60.233330576,178.0
60.259591141,169.0
60.285851706,165.0
60.312112271,167.0
60.338372836,130.0
60.364633401,167.0
60.390893966,165.0
60.417154531,205.0
60.443415096,169.0
60.469675661,181.0
60.495936226,183.0
60.522196791,158.0
60.548457356,146.0
60.574717921,171.0
60.600978486,192.0
60.627239051,157.0
60.653499616,172.0
60.679760181,177.0
60.706020746,149.0
60.732281311,155.0
60.758541876,164.0
60.784802441,158.0
60.811063006,139.0
60.837323571,145.0
60.863584136,110.0
60.889844701,146.0
60.916105266,141.0
60.942365831,142.0
60.968626396,158.0
60.994886961,156.0
61.021147526,140.0
61.047408091,153.0
61.073668656,131.0
61.099929221,150.0
61.126189786,135.0
61.152450351,165.0
61.178710916,170.0
61.204971481,145.0
61.231232046,156.0
61.257492611,133.0
61.283753176,160.0
61.310013741,128.0
61.336274306,124.0
61.362534871,141.0
61.388795436,135.0
61.415056001,143.0
61.441316566,152.0
61.467577131,154.0
61.493837696,129.0
61.520098261,164.0
61.546358826,149.0
61.572619391,162.0
61.598879956,148.0
61.625140521,149.0
61.651401086,148.0
61.677661651,141.0
61.703922216,169.0
61.730182781,161.0
61.756443346,154.0
61.782703911,163.0
61.808964476,176.0
61.835225041,161.0
61.861485606,189.0
61.887746171,188.0
61.914006736,176.0
61.940267301,161.0
61.966527866,183.0
61.992788431,151.0
62.019048996,169.0
62.045309561,154.0
62.071570126,154.0
62.097830691,190.0
62.124091256,158.0
62.150351821,158.0
62.176612386,157.0
62.202872951,153.0
62.229133516,129.0
62.255394081,132.0
62.281654646,146.0
62.307915211,140.0
62.334175776,139.0
62.360436341,152.0
62.386696906,141.0
62.412957471,131.0
62.439218036,142.0
62.465478601,117.0
62.491739166,151.0
62.517999731,136.0
62.544260296,133.0
62.570520861,147.0
62.596781426,148.0
62.623041991,147.0
62.649302556,114.0
62.675563121,162.0
62.701823686,144.0
62.728084251,149.0
62.754344816,139.0
62.780605381,155.0
62.806865947,147.0
62.833126512,137.0
62.859387077,157.0
62.885647642,170.0
62.911908207,147.0
62.938168772,181.0
62.964429337,169.0
62.990689902,123.0
63.016950467,171.0
63.043211032,139.0
63.069471597,163.0
63.095732162,168.0
63.121992727,151.0
63.148253292,166.0
63.174513857,168.0
63.200774422,195.0
63.227034987,192.0
63.253295552,163.0
63.279556117,157.0
63.305816682,151.0
63.332077247,159.0
63.358337812,127.0
63.384598377,159.0
63.410858942,145.0
63.437119507,150.0
63.463380072,144.0
63.489640637,133.0
63.515901202,132.0
63.542161767,159.0
63.568422332,132.0
63.594682897,124.0
63.620943462,137.0
63.647204027,156.0
63.673464592,120.0
63.699725157,133.0
63.725985722,142.0
63.752246287,132.0
63.778506852,129.0
63.804767417,106.0
63.831027982,130.0
63.857288547,131.0
63.883549112,132.0
63.909809677,112.0
63.936070242,113.0
63.962330807,132.0
63.988591372,146.0
64.014851937,140.0
64.041112502,110.0
64.067373067,156.0
64.093633632,135.0
64.119894197,116.0
64.146154762,138.0
64.172415327,116.0
64.198675892,152.0
64.224936457,104.0
64.251197022,148.0
64.277457587,138.0
64.303718152,125.0
64.329978717,154.0
64.356239282,144.0
64.382499847,113.0
64.408760412,117.0
64.435020977,127.0
64.461281542,147.0
64.487542107,126.0
64.513802672,135.0
64.540063237,140.0
64.566323802,152.0
64.592584367,135.0
64.618844932,139.0
64.645105497,146.0
64.671366062,149.0
64.697626627,153.0
64.723887192,124.0
64.750147757,110.0
64.776408322,140.0
64.802668887,146.0
64.828929452,128.0
64.855190017,97.0
64.881450582,132.0
64.907711147,136.0
64.933971712,130.0
64.960232277,116.0
64.986492842,125.0
65.012753407,124.0
65.039013972,136.0
65.065274537,130.0
65.091535102,144.0
65.117795667,146.0
65.144056232,113.0
65.170316797,128.0
65.196577362,138.0
65.222837927,105.0
65.249098492,171.0
65.275359057,143.0
65.301619622,131.0
65.327880187,142.0
65.354140752,175.0
65.380401317,171.0
65.406661882,204.0
65.432922447,217.0
65.459183012,258.0
65.485443577,229.0
65.511704142,219.0
65.537964707,207.0
65.564225272,219.0
65.590485837,184.0
65.616746402,225.0
65.643006967,198.0
65.669267532,173.0
65.695528097,174.0
65.721788662,156.0
65.748049227,136.0
65.774309792,120.0
65.800570357,129.0
65.826830922,114.0
65.853091487,138.0
65.879352052,112.0
65.905612617,135.0
65.931873182,121.0
65.958133747,146.0
65.984394312,137.0
66.010654878,145.0
66.036915443,148.0
66.063176008,119.0
66.089436573,126.0
66.115697138,126.0
66.141957703,101.0
66.168218268,107.0
66.194478833,122.0
66.220739398,102.0
66.246999963,119.0
66.273260528,114.0
66.299521093,125.0
66.325781658,129.0
66.352042223,123.0
66.378302788,165.0
66.404563353,143.0
66.430823918,135.0
66.457084483,136.0
66.483345048,147.0
66.509605613,99.0
66.535866178,127.0
66.562126743,113.0
66.588387308,98.0
66.614647873,108.0
66.640908438,113.0
66.667169003,130.0
66.693429568,121.0
66.719690133,124.0
66.745950698,122.0
66.772211263,135.0
66.798471828,155.0
66.824732393,147.0
66.850992958,139.0
66.877253523,119.0
66.903514088,109.0
66.929774653,113.0
66.956035218,123.0
66.982295783,160.0
67.008556348,122.0
67.034816913,137.0
67.061077478,125.0
67.087338043,103.0
67.113598608,125.0
67.139859173,131.0
67.166119738,139.0
67.192380303,107.0
67.218640868,135.0
67.244901433,110.0
67.271161998,116.0
67.297422563,109.0
67.323683128,123.0
67.349943693,121.0
67.376204258,159.0
67.402464823,118.0
67.428725388,118.0
67.454985953,139.0
67.481246518,119.0
67.507507083,114.0
67.533767648,122.0
67.560028213,117.0
67.586288778,119.0
67.612549343,121.0
67.638809908,129.0
67.665070473,135.0
67.691331038,101.0
67.717591603,104.0
67.743852168,120.0
67.770112733,117.0
67.796373298,134.0
67.822633863,121.0
67.848894428,120.0
67.875154993,137.0
67.901415558,121.0
67.927676123,120.0
67.953936688,104.0
67.980197253,113.0
68.006457818,103.0
68.032718383,111.0
68.058978948,121.0
68.085239513,115.0
68.111500078,122.0
68.137760643,117.0
68.164021208,107.0
68.190281773,105.0
68.216542338,137.0
68.242802903,107.0
68.269063468,143.0
68.295324033,121.0
68.321584598,114.0
68.347845163,117.0
68.374105728,128.0
68.400366293,129.0
68.426626858,151.0
68.452887423,121.0
68.479147988,138.0
68.505408553,118.0
68.531669118,125.0
68.557929683,135.0
68.584190248,142.0
68.610450813,151.0
68.636711378,142.0
68.662971943,136.0
68.689232508,149.0
68.715493073,130.0
68.741753638,147.0
68.768014203,156.0
68.794274768,157.0
68.820535333,176.0
68.846795898,193.0
68.873056463,200.0
68.899317028,268.0
68.925577593,336.0
68.951838158,392.0
68.978098723,433.0
69.004359288,462.0
69.030619853,462.0
69.056880418,412.0
69.083140983,381.0
69.109401548,411.0
69.135662113,391.0
69.161922678,430.0
69.188183243,381.0
69.214443809,399.0
69.240704374,379.0
69.266964939,386.0
69.293225504,411.0
69.319486069,471.0
69.345746634,563.0
69.372007199,702.0
69.398267764,915.0
69.424528329,1248.0
69.450788894,1574.0
69.477049459,1715.0
69.503310024,1597.0
69.529570589,1253.0
69.555831154,1057.0
69.582091719,901.0
69.608352284,898.0
69.634612849,923.0
69.660873414,1086.0
69.687133979,1015.0
69.713394544,898.0
69.739655109,702.0
69.765915674,625.0
69.792176239,548.0
69.818436804,588.0
69.844697369,533.0
69.870957934,459.0
69.897218499,433.0
69.923479064,352.0
69.949739629,310.0
69.976000194,336.0
70.002260759,319.0
70.028521324,344.0
70.054781889,299.0
70.081042454,287.0
70.107303019,257.0
70.133563584,222.0
70.159824149,207.0
70.186084714,186.0
70.212345279,207.0
70.238605844,217.0
70.264866409,188.0
70.291126974,167.0
70.317387539,139.0
70.343648104,148.0
70.369908669,184.0
70.396169234,189.0
70.422429799,145.0
70.448690364,172.0
70.474950929,156.0
70.501211494,159.0
70.527472059,186.0
70.553732624,165.0
70.579993189,133.0
70.606253754,122.0
70.632514319,131.0
70.658774884,114.0
70.685035449,119.0
70.711296014,104.0
70.737556579,127.0
70.763817144,127.0
70.790077709,125.0
70.816338274,102.0
70.842598839,117.0
70.868859404,139.0
70.895119969,121.0
70.921380534,147.0
70.947641099,121.0
70.973901664,132.0
71.000162229,119.0
71.026422794,141.0
71.052683359,131.0
71.078943924,123.0
71.105204489,96.0
71.131465054,111.0
71.157725619,115.0
71.183986184,108.0
71.210246749,104.0
71.236507314,116.0
71.262767879,127.0
71.289028444,127.0
71.315289009,118.0
71.341549574,123.0
71.367810139,129.0
71.394070704,129.0
71.420331269,139.0
71.446591834,145.0
71.472852399,152.0
71.499112964,129.0
71.525373529,134.0
71.551634094,144.0
71.577894659,127.0
71.604155224,131.0
71.630415789,115.0
71.656676354,122.0
71.682936919,126.0
71.709197484,115.0
71.735458049,108.0
71.761718614,112.0
71.787979179,122.0
71.814239744,121.0
71.840500309,103.0
71.866760874,122.0
71.893021439,107.0
71.919282004,128.0
71.945542569,93.0
71.971803134,106.0
71.998063699,96.0
72.024324264,119.0
72.050584829,122.0
72.076845394,106.0
72.103105959,117.0
72.129366524,132.0
72.155627089,134.0
72.181887654,131.0
72.208148219,129.0
72.234408784,137.0
72.260669349,140.0
72.286929914,145.0
72.313190479,113.0
72.339451044,114.0
72.365711609,127.0
72.391972174,127.0
72.418232740,125.0
72.444493305,114.0
72.470753870,125.0
72.497014435,128.0
72.523275000,121.0
72.549535565,107.0
72.575796130,112.0
72.602056695,117.0
72.628317260,125.0
72.654577825,116.0
72.680838390,120.0
72.707098955,113.0
72.733359520,119.0
72.759620085,108.0
72.785880650,121.0
72.812141215,109.0
72.838401780,118.0
72.864662345,117.0
72.890922910,133.0
72.917183475,131.0
72.943444040,154.0
72.969704605,162.0
72.995965170,179.0
73.022225735,185.0
73.048486300,178.0
73.074746865,189.0
73.101007430,167.0
73.127267995,203.0
73.153528560,221.0
73.179789125,215.0
73.206049690,190.0
73.232310255,195.0
73.258570820,233.0
73.284831385,244.0
73.311091950,207.0
73.337352515,184.0
73.363613080,156.0
73.389873645,174.0
73.416134210,218.0
73.442394775,163.0
73.468655340,172.0
73.494915905,186.0
73.521176470,159.0
73.547437035,169.0
73.573697600,146.0
73.599958165,139.0
73.626218730,110.0
73.652479295,129.0
73.678739860,134.0
73.705000425,126.0
73.731260990,122.0
73.757521555,102.0
73.783782120,123.0
73.810042685,138.0
73.836303250,129.0
73.862563815,134.0
73.888824380,146.0
73.915084945,139.0
73.941345510,121.0
73.967606075,123.0
73.993866640,134.0
74.020127205,148.0
74.046387770,123.0
74.072648335,159.0
74.098908900,169.0
74.125169465,203.0
74.151430030,191.0
74.177690595,195.0
74.203951160,161.0
74.230211725,160.0
74.256472290,149.0
74.282732855,134.0
74.308993420,143.0
74.335253985,142.0
74.361514550,148.0
74.387775115,158.0
74.414035680,145.0
74.440296245,122.0
74.466556810,143.0
74.492817375,144.0
74.519077940,156.0
74.545338505,146.0
74.571599070,127.0
74.597859635,130.0
74.624120200,126.0
74.650380765,142.0
74.676641330,138.0
74.702901895,131.0
74.729162460,131.0
74.755423025,133.0
74.781683590,117.0
74.807944155,130.0
74.834204720,136.0
74.860465285,109.0
74.886725850,132.0
74.912986415,112.0
74.939246980,117.0
74.965507545,117.0
74.991768110,91.0
75.018028675,111.0
75.044289240,113.0
75.070549805,100.0
75.096810370,108.0
75.123070935,104.0
75.149331500,117.0
75.175592065,128.0
75.201852630,127.0
75.228113195,103.0
75.254373760,106.0
75.280634325,111.0
75.306894890,127.0
75.333155455,110.0
75.359416020,104.0
75.385676585,126.0
75.411937150,136.0
75.438197715,127.0
75.464458280,118.0
75.490718845,148.0
75.516979410,144.0
75.543239975,152.0
75.569500540,137.0
75.595761106,121.0
75.622021671,133.0
75.648282236,105.0
75.674542801,126.0
75.700803366,121.0
75.727063931,114.0
75.753324496,127.0
75.779585061,127.0
75.805845626,131.0
75.832106191,113.0
75.858366756,116.0
75.884627321,106.0
75.910887886,111.0
75.937148451,106.0
75.963409016,108.0
75.989669581,130.0
76.015930146,107.0
76.042190711,109.0
76.068451276,103.0
76.094711841,114.0
76.120972406,111.0
76.147232971,94.0
76.173493536,121.0
76.199754101,95.0
76.226014666,108.0
76.252275231,121.0
76.278535796,125.0
76.304796361,122.0
76.331056926,137.0
76.357317491,145.0
76.383578056,115.0
76.409838621,121.0
76.436099186,110.0
76.462359751,127.0
76.488620316,111.0
76.514880881,127.0
76.541141446,106.0
76.567402011,109.0
76.593662576,124.0
76.619923141,118.0
76.646183706,115.0
76.672444271,114.0
76.698704836,126.0
76.724965401,117.0
76.751225966,106.0
76.777486531,111.0
76.803747096,97.0
76.830007661,123.0
76.856268226,110.0
76.882528791,95.0
76.908789356,108.0
76.935049921,114.0
76.961310486,112.0
76.987571051,102.0
77.013831616,101.0
77.040092181,112.0
77.066352746,114.0
77.092613311,138.0
77.118873876,147.0
77.145134441,135.0
77.171395006,119.0
77.197655571,107.0
77.223916136,123.0
77.250176701,126.0
77.276437266,115.0
77.302697831,123.0
77.328958396,105.0
77.355218961,101.0
77.381479526,110.0
77.407740091,125.0
77.434000656,105.0
77.460261221,110.0
77.486521786,110.0
77.512782351,108.0
77.539042916,118.0
77.565303481,109.0
77.591564046,105.0
77.617824611,120.0
77.644085176,113.0
77.670345741,111.0
77.696606306,115.0
77.722866871,117.0
77.749127436,113.0
77.775388001,135.0
77.801648566,113.0
77.827909131,105.0
77.854169696,112.0
77.880430261,97.0
77.906690826,104.0
77.932951391,101.0
77.959211956,98.0
77.985472521,118.0
78.011733086,118.0
78.037993651,97.0
78.064254216,110.0
78.090514781,103.0
78.116775346,96.0
78.143035911,115.0
78.169296476,119.0
78.195557041,122.0
78.221817606,95.0
78.248078171,107.0
78.274338736,110.0
78.300599301,97.0
78.326859866,111.0
78.353120431,104.0
78.379380996,94.0
78.405641561,101.0
78.431902126,125.0
78.458162691,124.0
78.484423256,107.0
78.510683821,119.0
78.536944386,118.0
78.563204951,138.0
78.589465516,139.0
78.615726081,169.0
78.641986646,161.0
78.668247211,186.0
78.694507776,223.0
78.720768341,238.0
78.747028906,250.0
78.773289471,311.0
78.799550037,296.0
78.825810602,290.0
78.852071167,280.0
78.878331732,267.0
78.904592297,296.0
78.930852862,332.0
78.957113427,352.0
78.983373992,429.0
79.009634557,461.0
79.035895122,547.0
79.062155687,678.0
79.088416252,718.0
79.114676817,768.0
79.140937382,816.0
79.167197947,796.0
79.193458512,851.0
79.219719077,814.0
79.245979642,755.0
79.272240207,668.0
79.298500772,656.0
79.324761337,644.0
79.351021902,630.0
79.377282467,664.0
79.403543032,650.0
79.429803597,613.0
79.456064162,538.0
79.482324727,476.0
79.508585292,383.0
79.534845857,348.0
79.561106422,247.0
79.587366987,251.0
79.613627552,249.0
79.639888117,249.0
79.666148682,222.0
79.692409247,204.0
79.718669812,176.0
79.744930377,161.0
79.771190942,156.0
79.797451507,130.0
79.823712072,125.0
79.849972637,154.0
79.876233202,150.0
79.902493767,169.0
79.928754332,180.0
79.955014897,149.0
79.981275462,153.0
80.007536027,142.0
80.033796592,128.0
80.060057157,150.0
80.086317722,140.0
80.112578287,138.0
80.138838852,130.0
80.165099417,168.0
80.191359982,130.0
80.217620547,127.0
80.243881112,158.0
80.270141677,164.0
80.296402242,140.0
80.322662807,173.0
80.348923372,134.0
80.375183937,170.0
80.401444502,169.0
80.427705067,147.0
80.453965632,122.0
80.480226197,154.0
80.506486762,142.0
80.532747327,142.0
80.559007892,141.0
80.585268457,143.0
80.611529022,133.0
80.637789587,152.0
80.664050152,125.0
80.690310717,112.0
80.716571282,99.0
80.742831847,100.0
80.769092412,121.0
80.795352977,93.0
80.821613542,124.0
80.847874107,121.0
80.874134672,100.0
80.900395237,88.0
80.926655802,109.0
80.952916367,105.0
80.979176932,116.0
81.005437497,111.0
81.031698062,93.0
81.057958627,123.0
81.084219192,88.0
81.110479757,109.0
81.136740322,93.0
81.163000887,91.0
81.189261452,117.0
81.215522017,101.0
81.241782582,92.0
81.268043147,116.0
81.294303712,79.0
81.320564277,97.0
81.346824842,90.0
81.373085407,91.0
81.399345972,76.0
81.425606537,102.0
81.451867102,94.0
81.478127667,102.0
81.504388232,92.0
81.530648797,98.0
81.556909362,84.0
81.583169927,98.0
81.609430492,116.0
81.635691057,99.0
81.661951622,96.0
81.688212187,88.0
81.714472752,101.0
81.740733317,104.0
81.766993882,114.0
81.793254447,109.0
81.819515012,89.0
81.845775577,74.0
81.872036142,88.0
81.898296707,92.0
81.924557272,101.0
81.950817837,81.0
81.977078402,104.0
82.003338968,87.0
82.029599533,110.0
82.055860098,92.0
82.082120663,108.0
82.108381228,103.0
82.134641793,119.0
82.160902358,93.0
82.187162923,117.0
82.213423488,108.0
82.239684053,101.0
82.265944618,101.0
82.292205183,128.0
82.318465748,112.0
82.344726313,106.0
82.370986878,104.0
82.397247443,92.0
82.423508008,96.0
82.449768573,93.0
82.476029138,118.0
82.502289703,107.0
82.528550268,98.0
82.554810833,99.0
82.581071398,99.0
82.607331963,97.0
82.633592528,106.0
82.659853093,107.0
82.686113658,124.0
82.712374223,89.0
82.738634788,104.0
82.764895353,118.0
82.791155918,107.0
82.817416483,120.0
82.843677048,105.0
82.869937613,113.0
82.896198178,112.0
82.922458743,128.0
82.948719308,118.0
82.974979873,147.0
83.001240438,138.0
83.027501003,124.0
83.053761568,133.0
83.080022133,116.0
83.106282698,123.0
83.132543263,94.0
83.158803828,98.0
83.185064393,128.0
83.211324958,117.0
83.237585523,132.0
83.263846088,78.0
83.290106653,119.0
83.316367218,95.0
83.342627783,98.0
83.368888348,106.0
83.395148913,121.0
83.421409478,119.0
83.447670043,115.0
83.473930608,98.0
83.500191173,93.0
83.526451738,100.0
83.552712303,91.0
83.578972868,100.0
83.605233433,92.0
83.631493998,99.0
83.657754563,107.0
83.684015128,96.0
83.710275693,91.0
83.736536258,102.0
83.762796823,104.0
83.789057388,88.0
83.815317953,109.0
83.841578518,93.0
83.867839083,114.0
83.894099648,90.0
83.920360213,85.0
83.946620778,89.0
83.972881343,89.0
83.999141908,94.0
84.025402473,109.0
84.051663038,99.0
84.077923603,85.0
84.104184168,87.0
84.130444733,73.0
84.156705298,91.0
84.182965863,89.0
84.209226428,91.0
84.235486993,101.0
84.261747558,101.0
84.288008123,99.0
84.314268688,136.0
84.340529253,93.0
84.366789818,87.0
84.393050383,106.0
84.419310948,101.0
84.445571513,119.0
84.471832078,95.0
84.498092643,102.0
84.524353208,122.0
84.550613773,122.0
84.576874338,95.0
84.603134903,122.0
84.629395468,100.0
84.655656033,114.0
84.681916598,120.0
84.708177163,122.0
84.734437728,153.0
84.760698293,143.0
84.786958858,158.0
84.813219423,163.0
84.839479988,183.0
84.865740553,177.0
84.892001118,172.0
84.918261683,180.0
84.944522248,174.0
84.970782813,185.0
84.997043378,185.0
85.023303943,178.0
85.049564508,165.0
85.075825073,186.0
85.102085638,125.0
85.128346203,190.0
85.154606768,178.0
85.180867333,164.0
85.207127899,169.0
85.233388464,166.0
85.259649029,162.0
85.285909594,152.0
85.312170159,136.0
85.338430724,115.0
85.364691289,130.0
85.390951854,133.0
85.417212419,114.0
85.443472984,105.0
85.469733549,121.0
85.495994114,111.0
85.522254679,121.0
85.548515244,98.0
85.574775809,97.0
85.601036374,115.0
85.627296939,102.0
85.653557504,107.0
85.679818069,103.0
85.706078634,114.0
85.732339199,110.0
85.758599764,109.0
85.784860329,103.0
85.811120894,89.0
85.837381459,101.0
85.863642024,98.0
85.889902589,102.0
85.916163154,107.0
85.942423719,96.0
85.968684284,91.0
85.994944849,87.0
86.021205414,107.0
86.047465979,115.0
86.073726544,94.0
86.099987109,89.0
86.126247674,102.0
86.152508239,132.0
86.178768804,88.0
86.205029369,83.0
86.231289934,97.0
86.257550499,89.0
86.283811064,96.0
86.310071629,98.0
86.336332194,96.0
86.362592759,97.0
86.388853324,103.0
86.415113889,97.0
86.441374454,85.0
86.467635019,99.0
86.493895584,108.0
86.520156149,109.0
86.546416714,100.0
86.572677279,79.0
86.598937844,94.0
86.625198409,94.0
86.651458974,103.0
86.677719539,84.0
86.703980104,76.0
86.730240669,78.0
86.756501234,110.0
86.782761799,97.0
86.809022364,103.0
86.835282929,100.0
86.861543494,113.0
86.887804059,93.0
86.914064624,84.0
86.940325189,95.0
86.966585754,104.0
86.992846319,98.0
87.019106884,90.0
87.045367449,105.0
87.071628014,112.0
87.097888579,93.0
87.124149144,117.0
87.150409709,75.0
87.176670274,90.0
87.202930839,117.0
87.229191404,102.0
87.255451969,71.0
87.281712534,90.0
87.307973099,93.0
87.334233664,85.0
87.360494229,93.0
87.386754794,81.0
87.413015359,105.0
87.439275924,94.0
87.465536489,86.0
87.491797054,105.0
87.518057619,79.0
87.544318184,105.0
87.570578749,87.0
87.596839314,95.0
87.623099879,114.0
87.649360444,104.0
87.675621009,97.0
87.701881574,92.0
87.728142139,97.0
87.754402704,96.0
87.780663269,116.0
87.806923834,129.0
87.833184399,128.0
87.859444964,119.0
87.885705529,132.0
87.911966094,128.0
87.938226659,138.0
87.964487224,170.0
87.990747789,197.0
88.017008354,227.0
88.043268919,290.0
88.069529484,295.0
88.095790049,297.0
88.122050614,285.0
88.148311179,275.0
88.174571744,246.0
88.200832309,223.0
88.227092874,209.0
88.253353439,209.0
88.279614004,203.0
88.305874569,226.0
88.332135134,238.0
88.358395699,254.0
88.384656264,209.0
88.410916830,187.0
88.437177395,166.0
88.463437960,174.0
88.489698525,171.0
88.515959090,154.0
88.542219655,140.0
88.568480220,124.0
88.594740785,116.0
88.621001350,172.0
88.647261915,125.0
88.673522480,150.0
88.699783045,132.0
88.726043610,165.0
88.752304175,207.0
88.778564740,215.0
88.804825305,248.0
88.831085870,263.0
88.857346435,288.0
88.883607000,335.0
88.909867565,302.0
88.936128130,252.0
88.962388695,253.0
88.988649260,214.0
89.014909825,204.0
89.041170390,189.0
89.067430955,183.0
89.093691520,174.0
89.119952085,194.0
89.146212650,227.0
89.172473215,229.0
89.198733780,216.0
89.224994345,213.0
89.251254910,201.0
89.277515475,206.0
89.303776040,163.0
89.330036605,183.0
89.356297170,176.0
89.382557735,165.0
89.408818300,167.0
89.435078865,146.0
89.461339430,149.0
89.487599995,122.0
89.513860560,149.0
89.540121125,162.0
89.566381690,172.0
89.592642255,174.0
89.618902820,130.0
89.645163385,131.0
89.671423950,156.0
89.697684515,123.0
89.723945080,133.0
89.750205645,106.0
89.776466210,116.0
89.802726775,101.0
89.828987340,100.0
89.855247905,103.0
89.881508470,127.0
89.907769035,125.0
89.934029600,134.0
89.960290165,134.0
89.986550730,119.0
