[Measurement conditions]
Sample identification,
Comment - 1,"Configuration=Flat sample stage, Owner=User-1, Creation date=9/4/2017 1:38:11 PM"
Comment - 2,"Goniometer=PW3050/60 (Theta/Theta); Minimum step size 2Theta:0.001; Minimum step size Omega:0.001"
Comment - 3,"Sample stage=PW3071/xx Bracket"
Comment - 4,"Diffractometer system=XPERT-PRO"
Comment - 5,"Measurement program=C:\PANalytical\Data Collector\Programs\KTH_FSS.xrdmp, Identifier={25D02D24-B7D2-4E7B-8B86-82B391BC07B0}"
Anode material,Cu
K-Alpha1 wavelength,1.5405980
K-Alpha2 wavelength,1.5444260
Ratio K-Alpha2/K-Alpha1,0.500
Divergence slit,Fixed,0.38mm
Monochromator used,NO
Generator voltage, 40
Tube current, 30
File date and time,29/Jun/2020 09:49
Unit cell,
h k l, 0 0 0
Scan axis,Gonio
Scan range,10.009999997,89.999681013
Scan step size,0.0262606
No. of points, 3046
Scan type,CONTINUOUS
Time per step,126.990
[Scan points]
Angle,Intensity
10.023130280,1856.0
10.049390845,1847.0
10.075651410,1917.0
10.101911975,1909.0
10.128172540,1791.0
10.154433105,1832.0
10.180693670,1859.0
10.206954235,1880.0
10.233214800,1869.0
10.259475365,1878.0
10.285735930,1899.0
10.311996495,1825.0
10.338257060,1962.0
10.364517625,1830.0
10.390778190,1825.0
10.417038755,1800.0
10.443299320,1803.0
10.469559885,1809.0
10.495820450,1855.0
10.522081015,1869.0
10.548341580,1923.0
10.574602145,1807.0
10.600862710,1803.0
10.627123275,1815.0
10.653383840,1876.0
10.679644405,1841.0
10.705904970,1858.0
10.732165535,1894.0
10.758426100,1828.0
10.784686665,1873.0
10.810947230,1864.0
10.837207795,1877.0
10.863468360,1831.0
10.889728925,1926.0
10.915989490,1860.0
10.942250055,1911.0
10.968510620,1778.0
10.994771185,1887.0
11.021031750,1833.0
11.047292315,1840.0
11.073552880,1822.0
11.099813445,1889.0
11.126074010,1762.0
11.152334575,1790.0
11.178595140,1849.0
11.204855705,1859.0
11.231116270,1791.0
11.257376835,1821.0
11.283637400,1777.0
11.309897965,1762.0
11.336158530,1794.0
11.362419095,1771.0
11.388679660,1776.0
11.414940225,1786.0
11.441200790,1732.0
11.467461355,1805.0
11.493721920,1897.0
11.519982485,1764.0
11.546243050,1782.0
11.572503615,1838.0
11.598764180,1850.0
11.625024746,1805.0
11.651285311,1798.0
11.677545876,1811.0
11.703806441,1696.0
11.730067006,1823.0
11.756327571,1797.0
11.782588136,1773.0
11.808848701,1872.0
11.835109266,1766.0
11.861369831,1849.0
11.887630396,1791.0
11.913890961,1765.0
11.940151526,1772.0
11.966412091,1871.0
11.992672656,1763.0
12.018933221,1898.0
12.045193786,1836.0
12.071454351,1695.0
12.097714916,1749.0
12.123975481,1708.0
12.150236046,1718.0
12.176496611,1757.0
12.202757176,1761.0
12.229017741,1751.0
12.255278306,1764.0
12.281538871,1797.0
12.307799436,1789.0
12.334060001,1725.0
12.360320566,1712.0
12.386581131,1726.0
12.412841696,1758.0
12.439102261,1761.0
12.465362826,1680.0
12.491623391,1734.0
12.517883956,1743.0
12.544144521,1709.0
12.570405086,1745.0
12.596665651,1746.0
12.622926216,1777.0
12.649186781,1695.0
12.675447346,1733.0
12.701707911,1773.0
12.727968476,1754.0
12.754229041,1688.0
12.780489606,1708.0
12.806750171,1675.0
12.833010736,1854.0
12.859271301,1710.0
12.885531866,1740.0
12.911792431,1669.0
12.938052996,1666.0
12.964313561,1649.0
12.990574126,1720.0
13.016834691,1811.0
13.043095256,1725.0
13.069355821,1673.0
13.095616386,1714.0
13.121876951,1685.0
13.148137516,1716.0
13.174398081,1678.0
13.200658646,1704.0
13.226919211,1782.0
13.253179776,1658.0
13.279440341,1668.0
13.305700906,1640.0
13.331961471,1713.0
13.358222036,1761.0
13.384482601,1688.0
13.410743166,1712.0
13.437003731,1705.0
13.463264296,1745.0
13.489524861,1694.0
13.515785426,1712.0
13.542045991,1748.0
13.568306556,1630.0
13.594567121,1774.0
13.620827686,1775.0
13.647088251,1687.0
13.673348816,1801.0
13.699609381,1599.0
13.725869946,1683.0
13.752130511,1660.0
13.778391076,1709.0
13.804651641,1637.0
13.830912206,1720.0
13.857172771,1703.0
13.883433336,1673.0
13.909693901,1729.0
13.935954466,1652.0
13.962215031,1743.0
13.988475596,1721.0
14.014736161,1759.0
14.040996726,1746.0
14.067257291,1651.0
14.093517856,1667.0
14.119778421,1691.0
14.146038986,1768.0
14.172299551,1687.0
14.198560116,1783.0
14.224820681,1793.0
14.251081246,1828.0
14.277341811,1746.0
14.303602376,1783.0
14.329862941,1800.0
14.356123506,1834.0
14.382384071,1779.0
14.408644636,1727.0
14.434905201,1609.0
14.461165766,1746.0
14.487426331,1622.0
14.513686896,1637.0
14.539947461,1673.0
14.566208026,1723.0
14.592468591,1654.0
14.618729156,1643.0
14.644989721,1646.0
14.671250286,1636.0
14.697510851,1653.0
14.723771416,1616.0
14.750031981,1764.0
14.776292546,1596.0
14.802553111,1659.0
14.828813677,1759.0
14.855074242,1649.0
14.881334807,1615.0
14.907595372,1656.0
14.933855937,1606.0
14.960116502,1674.0
14.986377067,1648.0
15.012637632,1611.0
15.038898197,1735.0
15.065158762,1676.0
15.091419327,1710.0
15.117679892,1671.0
15.143940457,1565.0
15.170201022,1716.0
15.196461587,1616.0
15.222722152,1750.0
15.248982717,1674.0
15.275243282,1588.0
15.301503847,1598.0
15.327764412,1638.0
15.354024977,1674.0
15.380285542,1626.0
15.406546107,1581.0
15.432806672,1689.0
15.459067237,1654.0
15.485327802,1688.0
15.511588367,1561.0
15.537848932,1577.0
15.564109497,1562.0
15.590370062,1613.0
15.616630627,1685.0
15.642891192,1626.0
15.669151757,1613.0
15.695412322,1645.0
15.721672887,1651.0
15.747933452,1596.0
15.774194017,1591.0
15.800454582,1593.0
15.826715147,1703.0
15.852975712,1641.0
15.879236277,1559.0
15.905496842,1630.0
15.931757407,1646.0
15.958017972,1680.0
15.984278537,1590.0
16.010539102,1705.0
16.036799667,1731.0
16.063060232,1654.0
16.089320797,1733.0
16.115581362,1735.0
16.141841927,1700.0
16.168102492,1727.0
16.194363057,1707.0
16.220623622,1694.0
16.246884187,1809.0
16.273144752,1697.0
16.299405317,1746.0
16.325665882,1748.0
16.351926447,1731.0
16.378187012,1805.0
16.404447577,1757.0
16.430708142,1754.0
16.456968707,1686.0
16.483229272,1740.0
16.509489837,1698.0
16.535750402,1695.0
16.562010967,1696.0
16.588271532,1736.0
16.614532097,1668.0
16.640792662,1722.0
16.667053227,1770.0
16.693313792,1769.0
16.719574357,1647.0
16.745834922,1678.0
16.772095487,1684.0
16.798356052,1659.0
16.824616617,1701.0
16.850877182,1730.0
16.877137747,1609.0
16.903398312,1655.0
16.929658877,1679.0
16.955919442,1685.0
16.982180007,1648.0
17.008440572,1692.0
17.034701137,1670.0
17.060961702,1685.0
17.087222267,1671.0
17.113482832,1646.0
17.139743397,1716.0
17.166003962,1663.0
17.192264527,1686.0
17.218525092,1604.0
17.244785657,1680.0
17.271046222,1652.0
17.297306787,1581.0
17.323567352,1645.0
17.349827917,1667.0
17.376088482,1694.0
17.402349047,1718.0
17.428609612,1659.0
17.454870177,1723.0
17.481130742,1557.0
17.507391307,1680.0
17.533651872,1617.0
17.559912437,1601.0
17.586173002,1582.0
17.612433567,1737.0
17.638694132,1616.0
17.664954697,1668.0
17.691215262,1632.0
17.717475827,1593.0
17.743736392,1649.0
17.769996957,1663.0
17.796257522,1579.0
17.822518087,1622.0
17.848778652,1699.0
17.875039217,1667.0
17.901299782,1668.0
17.927560347,1628.0
17.953820912,1546.0
17.980081477,1643.0
18.006342042,1631.0
18.032602608,1648.0
18.058863173,1625.0
18.085123738,1633.0
18.111384303,1610.0
18.137644868,1634.0
18.163905433,1632.0
18.190165998,1674.0
18.216426563,1585.0
18.242687128,1551.0
18.268947693,1606.0
18.295208258,1585.0
18.321468823,1721.0
18.347729388,1621.0
18.373989953,1583.0
18.400250518,1670.0
18.426511083,1614.0
18.452771648,1648.0
18.479032213,1570.0
18.505292778,1576.0
18.531553343,1619.0
18.557813908,1620.0
18.584074473,1649.0
18.610335038,1722.0
18.636595603,1648.0
18.662856168,1669.0
18.689116733,1652.0
18.715377298,1573.0
18.741637863,1577.0
18.767898428,1625.0
18.794158993,1649.0
18.820419558,1575.0
18.846680123,1557.0
18.872940688,1620.0
18.899201253,1675.0
18.925461818,1623.0
18.951722383,1618.0
18.977982948,1570.0
19.004243513,1550.0
19.030504078,1614.0
19.056764643,1643.0
19.083025208,1633.0
19.109285773,1640.0
19.135546338,1647.0
19.161806903,1539.0
19.188067468,1654.0
19.214328033,1578.0
19.240588598,1635.0
19.266849163,1552.0
19.293109728,1653.0
19.319370293,1557.0
19.345630858,1729.0
19.371891423,1556.0
19.398151988,1727.0
19.424412553,1671.0
19.450673118,1716.0
19.476933683,1599.0
19.503194248,1684.0
19.529454813,1762.0
19.555715378,1693.0
19.581975943,1769.0
19.608236508,1661.0
19.634497073,1611.0
19.660757638,1587.0
19.687018203,1620.0
19.713278768,1565.0
19.739539333,1602.0
19.765799898,1592.0
19.792060463,1624.0
19.818321028,1532.0
19.844581593,1556.0
19.870842158,1584.0
19.897102723,1577.0
19.923363288,1529.0
19.949623853,1526.0
19.975884418,1554.0
20.002144983,1546.0
20.028405548,1562.0
20.054666113,1562.0
20.080926678,1563.0
20.107187243,1636.0
20.133447808,1542.0
20.159708373,1573.0
20.185968938,1553.0
20.212229503,1546.0
20.238490068,1458.0
20.264750633,1539.0
20.291011198,1619.0
20.317271763,1562.0
20.343532328,1435.0
20.369792893,1495.0
20.396053458,1570.0
20.422314023,1527.0
20.448574588,1533.0
20.474835153,1574.0
20.501095718,1526.0
20.527356283,1547.0
20.553616848,1499.0
20.579877413,1584.0
20.606137978,1520.0
20.632398543,1539.0
20.658659108,1575.0
20.684919673,1438.0
20.711180238,1553.0
20.737440803,1507.0
20.763701368,1537.0
20.789961933,1595.0
20.816222498,1599.0
20.842483063,1478.0
20.868743628,1554.0
20.895004193,1509.0
20.921264758,1494.0
20.947525323,1522.0
20.973785888,1530.0
21.000046453,1537.0
21.026307018,1508.0
21.052567583,1471.0
21.078828148,1513.0
21.105088713,1560.0
21.131349278,1504.0
21.157609843,1554.0
21.183870408,1464.0
21.210130973,1524.0
21.236391539,1493.0
21.262652104,1520.0
21.288912669,1497.0
21.315173234,1461.0
21.341433799,1486.0
21.367694364,1423.0
21.393954929,1470.0
21.420215494,1537.0
21.446476059,1399.0
21.472736624,1520.0
21.498997189,1462.0
21.525257754,1476.0
21.551518319,1466.0
21.577778884,1534.0
21.604039449,1520.0
21.630300014,1449.0
21.656560579,1496.0
21.682821144,1477.0
21.709081709,1509.0
21.735342274,1495.0
21.761602839,1554.0
21.787863404,1500.0
21.814123969,1532.0
21.840384534,1462.0
21.866645099,1607.0
21.892905664,1530.0
21.919166229,1512.0
21.945426794,1442.0
21.971687359,1532.0
21.997947924,1454.0
22.024208489,1472.0
22.050469054,1464.0
22.076729619,1425.0
22.102990184,1492.0
22.129250749,1566.0
22.155511314,1523.0
22.181771879,1523.0
22.208032444,1462.0
22.234293009,1476.0
22.260553574,1475.0
22.286814139,1481.0
22.313074704,1471.0
22.339335269,1601.0
22.365595834,1510.0
22.391856399,1486.0
22.418116964,1524.0
22.444377529,1469.0
22.470638094,1482.0
22.496898659,1461.0
22.523159224,1474.0
22.549419789,1438.0
22.575680354,1575.0
22.601940919,1471.0
22.628201484,1551.0
22.654462049,1604.0
22.680722614,1652.0
22.706983179,1731.0
22.733243744,1789.0
22.759504309,1987.0
22.785764874,2340.0
22.812025439,2491.0
22.838286004,2634.0
22.864546569,2470.0
22.890807134,2257.0
22.917067699,1994.0
22.943328264,1702.0
22.969588829,1609.0
22.995849394,1660.0
23.022109959,1633.0
23.048370524,1540.0
23.074631089,1509.0
23.100891654,1554.0
23.127152219,1503.0
23.153412784,1496.0
23.179673349,1485.0
23.205933914,1507.0
23.232194479,1562.0
23.258455044,1468.0
23.284715609,1556.0
23.310976174,1494.0
23.337236739,1484.0
23.363497304,1445.0
23.389757869,1525.0
23.416018434,1502.0
23.442278999,1473.0
23.468539564,1456.0
23.494800129,1597.0
23.521060694,1489.0
23.547321259,1454.0
23.573581824,1510.0
23.599842389,1462.0
23.626102954,1490.0
23.652363519,1462.0
23.678624084,1571.0
23.704884649,1496.0
23.731145214,1527.0
23.757405779,1518.0
23.783666344,1452.0
23.809926909,1466.0
23.836187474,1425.0
23.862448039,1478.0
23.888708604,1539.0
23.914969169,1420.0
23.941229734,1459.0
23.967490299,1527.0
23.993750864,1515.0
24.020011429,1509.0
24.046271994,1531.0
24.072532559,1504.0
24.098793124,1494.0
24.125053689,1498.0
24.151314254,1525.0
24.177574819,1500.0
24.203835384,1525.0
24.230095949,1399.0
24.256356514,1491.0
24.282617079,1421.0
24.308877644,1544.0
24.335138209,1428.0
24.361398774,1497.0
24.387659339,1475.0
24.413919904,1544.0
24.440180470,1585.0
24.466441035,1490.0
24.492701600,1543.0
24.518962165,1559.0
24.545222730,1521.0
24.571483295,1516.0
24.597743860,1459.0
24.624004425,1462.0
24.650264990,1426.0
24.676525555,1509.0
24.702786120,1480.0
24.729046685,1433.0
24.755307250,1404.0
24.781567815,1500.0
24.807828380,1511.0
24.834088945,1556.0
24.860349510,1575.0
24.886610075,1473.0
24.912870640,1487.0
24.939131205,1532.0
24.965391770,1432.0
24.991652335,1471.0
25.017912900,1504.0
25.044173465,1560.0
25.070434030,1533.0
25.096694595,1465.0
25.122955160,1576.0
25.149215725,1632.0
25.175476290,1640.0
25.201736855,1573.0
25.227997420,1697.0
25.254257985,1689.0
25.280518550,1688.0
25.306779115,1653.0
25.333039680,1768.0
25.359300245,1668.0
25.385560810,1623.0
25.411821375,1667.0
25.438081940,1589.0
25.464342505,1516.0
25.490603070,1560.0
25.516863635,1500.0
25.543124200,1515.0
25.569384765,1586.0
25.595645330,1561.0
25.621905895,1473.0
25.648166460,1512.0
25.674427025,1548.0
25.700687590,1535.0
25.726948155,1531.0
25.753208720,1512.0
25.779469285,1456.0
25.805729850,1531.0
25.831990415,1468.0
25.858250980,1502.0
25.884511545,1533.0
25.910772110,1566.0
25.937032675,1510.0
25.963293240,1481.0
25.989553805,1554.0
26.015814370,1476.0
26.042074935,1397.0
26.068335500,1426.0
26.094596065,1490.0
26.120856630,1524.0
26.147117195,1496.0
26.173377760,1461.0
26.199638325,1385.0
26.225898890,1349.0
26.252159455,1419.0
26.278420020,1417.0
26.304680585,1407.0
26.330941150,1404.0
26.357201715,1428.0
26.383462280,1493.0
26.409722845,1375.0
26.435983410,1433.0
26.462243975,1442.0
26.488504540,1500.0
26.514765105,1443.0
26.541025670,1442.0
26.567286235,1546.0
26.593546800,1634.0
26.619807365,1492.0
26.646067930,1538.0
26.672328495,1498.0
26.698589060,1485.0
26.724849625,1457.0
26.751110190,1453.0
26.777370755,1447.0
26.803631320,1370.0
26.829891885,1442.0
26.856152450,1426.0
26.882413015,1476.0
26.908673580,1390.0
26.934934145,1420.0
26.961194710,1422.0
26.987455275,1422.0
27.013715840,1376.0
27.039976405,1412.0
27.066236970,1393.0
27.092497535,1447.0
27.118758100,1370.0
27.145018665,1496.0
27.171279230,1364.0
27.197539795,1379.0
27.223800360,1393.0
27.250060925,1490.0
27.276321490,1382.0
27.302582055,1428.0
27.328842620,1437.0
27.355103185,1427.0
27.381363750,1451.0
27.407624315,1470.0
27.433884880,1563.0
27.460145445,1703.0
27.486406010,1858.0
27.512666575,1980.0
27.538927140,2133.0
27.565187705,1941.0
27.591448270,1778.0
27.617708836,1824.0
27.643969401,1593.0
27.670229966,1474.0
27.696490531,1413.0
27.722751096,1439.0
27.749011661,1446.0
27.775272226,1508.0
27.801532791,1377.0
27.827793356,1369.0
27.854053921,1448.0
27.880314486,1383.0
27.906575051,1415.0
27.932835616,1405.0
27.959096181,1379.0
27.985356746,1439.0
28.011617311,1333.0
28.037877876,1364.0
28.064138441,1428.0
28.090399006,1397.0
28.116659571,1352.0
28.142920136,1393.0
28.169180701,1498.0
28.195441266,1459.0
28.221701831,1446.0
28.247962396,1419.0
28.274222961,1417.0
28.300483526,1485.0
28.326744091,1441.0
28.353004656,1385.0
28.379265221,1502.0
28.405525786,1531.0
28.431786351,1618.0
28.458046916,1502.0
28.484307481,1435.0
28.510568046,1485.0
28.536828611,1512.0
28.563089176,1447.0
28.589349741,1486.0
28.615610306,1467.0
28.641870871,1444.0
28.668131436,1408.0
28.694392001,1383.0
28.720652566,1411.0
28.746913131,1427.0
28.773173696,1369.0
28.799434261,1387.0
28.825694826,1474.0
28.851955391,1473.0
28.878215956,1443.0
28.904476521,1362.0
28.930737086,1397.0
28.956997651,1347.0
28.983258216,1399.0
29.009518781,1399.0
29.035779346,1438.0
29.062039911,1416.0
29.088300476,1457.0
29.114561041,1384.0
29.140821606,1414.0
29.167082171,1426.0
29.193342736,1427.0
29.219603301,1396.0
29.245863866,1531.0
29.272124431,1517.0
29.298384996,1468.0
29.324645561,1501.0
29.350906126,1398.0
29.377166691,1397.0
29.403427256,1396.0
29.429687821,1377.0
29.455948386,1405.0
29.482208951,1483.0
29.508469516,1433.0
29.534730081,1390.0
29.560990646,1381.0
29.587251211,1408.0
29.613511776,1421.0
29.639772341,1356.0
29.666032906,1484.0
29.692293471,1391.0
29.718554036,1437.0
29.744814601,1410.0
29.771075166,1416.0
29.797335731,1410.0
29.823596296,1370.0
29.849856861,1368.0
29.876117426,1397.0
29.902377991,1379.0
29.928638556,1448.0
29.954899121,1392.0
29.981159686,1398.0
30.007420251,1366.0
30.033680816,1398.0
30.059941381,1392.0
30.086201946,1344.0
30.112462511,1418.0
30.138723076,1405.0
30.164983641,1371.0
30.191244206,1395.0
30.217504771,1367.0
30.243765336,1331.0
30.270025901,1414.0
30.296286466,1479.0
30.322547031,1464.0
30.348807596,1450.0
30.375068161,1442.0
30.401328726,1403.0
30.427589291,1415.0
30.453849856,1431.0
30.480110421,1414.0
30.506370986,1447.0
30.532631551,1425.0
30.558892116,1397.0
30.585152681,1389.0
30.611413246,1348.0
30.637673811,1447.0
30.663934376,1420.0
30.690194941,1386.0
30.716455506,1407.0
30.742716071,1311.0
30.768976636,1337.0
30.795237201,1338.0
30.821497767,1443.0
30.847758332,1413.0
30.874018897,1405.0
30.900279462,1410.0
30.926540027,1357.0
30.952800592,1346.0
30.979061157,1293.0
31.005321722,1445.0
31.031582287,1355.0
31.057842852,1402.0
31.084103417,1379.0
31.110363982,1378.0
31.136624547,1464.0
31.162885112,1450.0
31.189145677,1380.0
31.215406242,1437.0
31.241666807,1482.0
31.267927372,1520.0
31.294187937,1627.0
31.320448502,1661.0
31.346709067,1701.0
31.372969632,1872.0
31.399230197,2021.0
31.425490762,2141.0
31.451751327,2158.0
31.478011892,2217.0
31.504272457,2145.0
31.530533022,2045.0
31.556793587,2017.0
31.583054152,1955.0
31.609314717,1792.0
31.635575282,1831.0
31.661835847,1901.0
31.688096412,1904.0
31.714356977,1745.0
31.740617542,1841.0
31.766878107,1885.0
31.793138672,1927.0
31.819399237,1978.0
31.845659802,1983.0
31.871920367,2009.0
31.898180932,1920.0
31.924441497,1858.0
31.950702062,1814.0
31.976962627,1696.0
32.003223192,1809.0
32.029483757,1895.0
32.055744322,1759.0
32.082004887,1828.0
32.108265452,1945.0
32.134526017,2011.0
32.160786582,2235.0
32.187047147,2388.0
32.213307712,2459.0
32.239568277,2817.0
32.265828842,3368.0
32.292089407,4183.0
32.318349972,5235.0
32.344610537,7040.0
32.370871102,9810.0
32.397131667,14251.0
32.423392232,21427.0
32.449652797,29236.0
32.475913362,33323.0
32.502173927,31015.0
32.528434492,25886.0
32.554695057,21164.0
32.580955622,16013.0
32.607216187,10828.0
32.633476752,6931.0
32.659737317,4899.0
32.685997882,3835.0
32.712258447,3273.0
32.738519012,2812.0
32.764779577,2489.0
32.791040142,2209.0
32.817300707,2003.0
32.843561272,1886.0
32.869821837,1814.0
32.896082402,1675.0
32.922342967,1738.0
32.948603532,1737.0
32.974864097,1723.0
33.001124662,1592.0
33.027385227,1606.0
33.053645792,1496.0
33.079906357,1593.0
33.106166922,1462.0
33.132427487,1588.0
33.158688052,1526.0
33.184948617,1456.0
33.211209182,1430.0
33.237469747,1451.0
33.263730312,1478.0
33.289990877,1478.0
33.316251442,1533.0
33.342512007,1490.0
33.368772572,1503.0
33.395033137,1507.0
33.421293702,1464.0
33.447554267,1414.0
33.473814832,1430.0
33.500075397,1455.0
33.526335962,1439.0
33.552596527,1412.0
33.578857092,1521.0
33.605117657,1486.0
33.631378222,1488.0
33.657638787,1375.0
33.683899352,1471.0
33.710159917,1444.0
33.736420482,1374.0
33.762681047,1427.0
33.788941612,1415.0
33.815202177,1419.0
33.841462742,1428.0
33.867723307,1428.0
33.893983872,1418.0
33.920244437,1436.0
33.946505002,1354.0
33.972765567,1455.0
33.999026132,1385.0
34.025286698,1383.0
34.051547263,1393.0
34.077807828,1417.0
34.104068393,1343.0
34.130328958,1467.0
34.156589523,1410.0
34.182850088,1431.0
34.209110653,1356.0
34.235371218,1453.0
34.261631783,1399.0
34.287892348,1389.0
34.314152913,1450.0
34.340413478,1359.0
34.366674043,1381.0
34.392934608,1374.0
34.419195173,1427.0
34.445455738,1372.0
34.471716303,1379.0
34.497976868,1446.0
34.524237433,1276.0
34.550497998,1399.0
34.576758563,1333.0
34.603019128,1393.0
34.629279693,1385.0
34.655540258,1430.0
34.681800823,1379.0
34.708061388,1381.0
34.734321953,1367.0
34.760582518,1384.0
34.786843083,1448.0
34.813103648,1367.0
34.839364213,1353.0
34.865624778,1364.0
34.891885343,1371.0
34.918145908,1357.0
34.944406473,1349.0
34.970667038,1369.0
34.996927603,1367.0
35.023188168,1345.0
35.049448733,1357.0
35.075709298,1350.0
35.101969863,1406.0
35.128230428,1452.0
35.154490993,1414.0
35.180751558,1464.0
35.207012123,1398.0
35.233272688,1474.0
35.259533253,1543.0
35.285793818,1437.0
35.312054383,1366.0
35.338314948,1459.0
35.364575513,1414.0
35.390836078,1356.0
35.417096643,1472.0
35.443357208,1486.0
35.469617773,1365.0
35.495878338,1450.0
35.522138903,1383.0
35.548399468,1379.0
35.574660033,1468.0
35.600920598,1386.0
35.627181163,1356.0
35.653441728,1357.0
35.679702293,1435.0
35.705962858,1386.0
35.732223423,1436.0
35.758483988,1445.0
35.784744553,1370.0
35.811005118,1404.0
35.837265683,1426.0
35.863526248,1442.0
35.889786813,1352.0
35.916047378,1344.0
35.942307943,1439.0
35.968568508,1434.0
35.994829073,1399.0
36.021089638,1472.0
36.047350203,1415.0
36.073610768,1464.0
36.099871333,1516.0
36.126131898,1620.0
36.152392463,1726.0
36.178653028,1673.0
36.204913593,1663.0
36.231174158,1636.0
36.257434723,1623.0
36.283695288,1497.0
36.309955853,1449.0
36.336216418,1554.0
36.362476983,1499.0
36.388737548,1557.0
36.414998113,1555.0
36.441258678,1478.0
36.467519243,1460.0
36.493779808,1480.0
36.520040373,1507.0
36.546300938,1446.0
36.572561503,1497.0
36.598822068,1414.0
36.625082633,1371.0
36.651343198,1372.0
36.677603763,1374.0
36.703864328,1381.0
36.730124893,1386.0
36.756385458,1391.0
36.782646023,1442.0
36.808906588,1388.0
36.835167153,1437.0
36.861427718,1342.0
36.887688283,1279.0
36.913948848,1401.0
36.940209413,1335.0
36.966469978,1332.0
36.992730543,1354.0
37.018991108,1283.0
37.045251673,1343.0
37.071512238,1318.0
37.097772803,1339.0
37.124033368,1378.0
37.150293933,1293.0
37.176554498,1363.0
37.202815063,1299.0
37.229075629,1339.0
37.255336194,1325.0
37.281596759,1365.0
37.307857324,1288.0
37.334117889,1322.0
37.360378454,1315.0
37.386639019,1292.0
37.412899584,1379.0
37.439160149,1355.0
37.465420714,1306.0
37.491681279,1351.0
37.517941844,1313.0
37.544202409,1281.0
37.570462974,1293.0
37.596723539,1228.0
37.622984104,1398.0
37.649244669,1361.0
37.675505234,1358.0
37.701765799,1283.0
37.728026364,1314.0
37.754286929,1266.0
37.780547494,1299.0
37.806808059,1320.0
37.833068624,1341.0
37.859329189,1325.0
37.885589754,1322.0
37.911850319,1335.0
37.938110884,1325.0
37.964371449,1322.0
37.990632014,1203.0
38.016892579,1396.0
38.043153144,1354.0
38.069413709,1376.0
38.095674274,1352.0
38.121934839,1462.0
38.148195404,1339.0
38.174455969,1347.0
38.200716534,1257.0
38.226977099,1319.0
38.253237664,1324.0
38.279498229,1349.0
38.305758794,1309.0
38.332019359,1323.0
38.358279924,1303.0
38.384540489,1386.0
38.410801054,1417.0
38.437061619,1345.0
38.463322184,1355.0
38.489582749,1315.0
38.515843314,1306.0
38.542103879,1382.0
38.568364444,1318.0
38.594625009,1266.0
38.620885574,1369.0
38.647146139,1368.0
38.673406704,1301.0
38.699667269,1321.0
38.725927834,1238.0
38.752188399,1367.0
38.778448964,1294.0
38.804709529,1365.0
38.830970094,1325.0
38.857230659,1272.0
38.883491224,1342.0
38.909751789,1334.0
38.936012354,1418.0
38.962272919,1382.0
38.988533484,1364.0
39.014794049,1409.0
39.041054614,1291.0
39.067315179,1407.0
39.093575744,1367.0
39.119836309,1354.0
39.146096874,1391.0
39.172357439,1364.0
39.198618004,1411.0
39.224878569,1372.0
39.251139134,1407.0
39.277399699,1523.0
39.303660264,1486.0
39.329920829,1551.0
39.356181394,1516.0
39.382441959,1540.0
39.408702524,1410.0
39.434963089,1404.0
39.461223654,1431.0
39.487484219,1390.0
39.513744784,1352.0
39.540005349,1391.0
39.566265914,1387.0
39.592526479,1372.0
39.618787044,1368.0
39.645047609,1418.0
39.671308174,1449.0
39.697568739,1437.0
39.723829304,1432.0
39.750089869,1505.0
39.776350434,1599.0
39.802610999,1616.0
39.828871564,1788.0
39.855132129,1907.0
39.881392694,2099.0
39.907653259,2514.0
39.933913824,3090.0
39.960174389,4261.0
39.986434954,5730.0
40.012695519,7411.0
40.038956084,7804.0
40.065216649,7085.0
40.091477214,5765.0
40.117737779,5451.0
40.143998344,4772.0
40.170258909,3963.0
40.196519474,2868.0
40.222780039,2254.0
40.249040604,1890.0
40.275301169,1760.0
40.301561734,1625.0
40.327822299,1567.0
40.354082864,1607.0
40.380343429,1466.0
40.406603994,1557.0
40.432864560,1538.0
40.459125125,1524.0
40.485385690,1597.0
40.511646255,1506.0
40.537906820,1604.0
40.564167385,1617.0
40.590427950,1543.0
40.616688515,1516.0
40.642949080,1488.0
40.669209645,1423.0
40.695470210,1450.0
40.721730775,1341.0
40.747991340,1361.0
40.774251905,1278.0
40.800512470,1300.0
40.826773035,1372.0
40.853033600,1303.0
40.879294165,1296.0
40.905554730,1308.0
40.931815295,1347.0
40.958075860,1395.0
40.984336425,1295.0
41.010596990,1230.0
41.036857555,1319.0
41.063118120,1307.0
41.089378685,1326.0
41.115639250,1344.0
41.141899815,1286.0
41.168160380,1298.0
41.194420945,1274.0
41.220681510,1408.0
41.246942075,1311.0
41.273202640,1390.0
41.299463205,1440.0
41.325723770,1485.0
41.351984335,1434.0
41.378244900,1358.0
41.404505465,1375.0
41.430766030,1358.0
41.457026595,1331.0
41.483287160,1376.0
41.509547725,1259.0
41.535808290,1256.0
41.562068855,1287.0
41.588329420,1303.0
41.614589985,1362.0
41.640850550,1242.0
41.667111115,1329.0
41.693371680,1307.0
41.719632245,1260.0
41.745892810,1340.0
41.772153375,1259.0
41.798413940,1331.0
41.824674505,1248.0
41.850935070,1377.0
41.877195635,1360.0
41.903456200,1358.0
41.929716765,1333.0
41.955977330,1339.0
41.982237895,1364.0
42.008498460,1298.0
42.034759025,1307.0
42.061019590,1300.0
42.087280155,1334.0
42.113540720,1326.0
42.139801285,1303.0
42.166061850,1319.0
42.192322415,1348.0
42.218582980,1399.0
42.244843545,1398.0
42.271104110,1273.0
42.297364675,1383.0
42.323625240,1303.0
42.349885805,1352.0
42.376146370,1378.0
42.402406935,1350.0
42.428667500,1330.0
42.454928065,1244.0
42.481188630,1322.0
42.507449195,1305.0
42.533709760,1245.0
42.559970325,1334.0
42.586230890,1265.0
42.612491455,1322.0
42.638752020,1267.0
42.665012585,1357.0
42.691273150,1308.0
42.717533715,1333.0
42.743794280,1293.0
42.770054845,1268.0
42.796315410,1317.0
42.822575975,1336.0
42.848836540,1381.0
42.875097105,1330.0
42.901357670,1375.0
42.927618235,1322.0
42.953878800,1330.0
42.980139365,1443.0
43.006399930,1355.0
43.032660495,1261.0
43.058921060,1387.0
43.085181625,1356.0
43.111442190,1454.0
43.137702755,1418.0
43.163963320,1333.0
43.190223885,1351.0
43.216484450,1372.0
43.242745015,1329.0
43.269005580,1331.0
43.295266145,1355.0
43.321526710,1311.0
43.347787275,1295.0
43.374047840,1339.0
43.400308405,1293.0
43.426568970,1291.0
43.452829535,1291.0
43.479090100,1269.0
43.505350665,1209.0
43.531611230,1294.0
43.557871795,1258.0
43.584132360,1296.0
43.610392926,1305.0
43.636653491,1315.0
43.662914056,1394.0
43.689174621,1390.0
43.715435186,1448.0
43.741695751,1456.0
43.767956316,1432.0
43.794216881,1539.0
43.820477446,1448.0
43.846738011,1404.0
43.872998576,1410.0
43.899259141,1349.0
43.925519706,1398.0
43.951780271,1392.0
43.978040836,1370.0
44.004301401,1328.0
44.030561966,1343.0
44.056822531,1317.0
44.083083096,1285.0
44.109343661,1433.0
44.135604226,1464.0
44.161864791,1494.0
44.188125356,1356.0
44.214385921,1394.0
44.240646486,1339.0
44.266907051,1405.0
44.293167616,1362.0
44.319428181,1289.0
44.345688746,1297.0
44.371949311,1300.0
44.398209876,1365.0
44.424470441,1349.0
44.450731006,1239.0
44.476991571,1285.0
44.503252136,1290.0
44.529512701,1319.0
44.555773266,1254.0
44.582033831,1288.0
44.608294396,1348.0
44.634554961,1385.0
44.660815526,1336.0
44.687076091,1260.0
44.713336656,1360.0
44.739597221,1352.0
44.765857786,1397.0
44.792118351,1374.0
44.818378916,1344.0
44.844639481,1328.0
44.870900046,1379.0
44.897160611,1341.0
44.923421176,1323.0
44.949681741,1347.0
44.975942306,1369.0
45.002202871,1334.0
45.028463436,1394.0
45.054724001,1377.0
45.080984566,1351.0
45.107245131,1346.0
45.133505696,1371.0
45.159766261,1343.0
45.186026826,1331.0
45.212287391,1255.0
45.238547956,1333.0
45.264808521,1394.0
45.291069086,1377.0
45.317329651,1264.0
45.343590216,1403.0
45.369850781,1376.0
45.396111346,1331.0
45.422371911,1363.0
45.448632476,1406.0
45.474893041,1352.0
45.501153606,1395.0
45.527414171,1378.0
45.553674736,1415.0
45.579935301,1358.0
45.606195866,1405.0
45.632456431,1304.0
45.658716996,1328.0
45.684977561,1325.0
45.711238126,1262.0
45.737498691,1383.0
45.763759256,1348.0
45.790019821,1298.0
45.816280386,1375.0
45.842540951,1365.0
45.868801516,1301.0
45.895062081,1364.0
45.921322646,1434.0
45.947583211,1335.0
45.973843776,1371.0
46.000104341,1471.0
46.026364906,1421.0
46.052625471,1442.0
46.078886036,1412.0
46.105146601,1425.0
46.131407166,1492.0
46.157667731,1440.0
46.183928296,1559.0
46.210188861,1491.0
46.236449426,1519.0
46.262709991,1677.0
46.288970556,1806.0
46.315231121,1942.0
46.341491686,2059.0
46.367752251,2343.0
46.394012816,2718.0
46.420273381,3355.0
46.446533946,4515.0
46.472794511,6455.0
46.499055076,9267.0
46.525315641,12128.0
46.551576206,13429.0
46.577836771,11763.0
46.604097336,9458.0
46.630357901,8554.0
46.656618466,8360.0
46.682879031,7637.0
46.709139596,5938.0
46.735400161,4252.0
46.761660726,3184.0
46.787921291,2658.0
46.814181857,2235.0
46.840442422,2052.0
46.866702987,1915.0
46.892963552,1774.0
46.919224117,1710.0
46.945484682,1635.0
46.971745247,1529.0
46.998005812,1513.0
47.024266377,1444.0
47.050526942,1287.0
47.076787507,1405.0
47.103048072,1417.0
47.129308637,1413.0
47.155569202,1425.0
47.181829767,1265.0
47.208090332,1324.0
47.234350897,1405.0
47.260611462,1380.0
47.286872027,1251.0
47.313132592,1300.0
47.339393157,1317.0
47.365653722,1296.0
47.391914287,1377.0
47.418174852,1368.0
47.444435417,1308.0
47.470695982,1352.0
47.496956547,1337.0
47.523217112,1342.0
47.549477677,1347.0
47.575738242,1354.0
47.601998807,1276.0
47.628259372,1321.0
47.654519937,1218.0
47.680780502,1301.0
47.707041067,1331.0
47.733301632,1398.0
47.759562197,1354.0
47.785822762,1368.0
47.812083327,1360.0
47.838343892,1337.0
47.864604457,1306.0
47.890865022,1326.0
47.917125587,1292.0
47.943386152,1301.0
47.969646717,1331.0
47.995907282,1282.0
48.022167847,1346.0
48.048428412,1285.0
48.074688977,1248.0
48.100949542,1317.0
48.127210107,1325.0
48.153470672,1238.0
48.179731237,1273.0
48.205991802,1254.0
48.232252367,1255.0
48.258512932,1256.0
48.284773497,1299.0
48.311034062,1230.0
48.337294627,1198.0
48.363555192,1304.0
48.389815757,1290.0
48.416076322,1191.0
48.442336887,1263.0
48.468597452,1240.0
48.494858017,1217.0
48.521118582,1281.0
48.547379147,1206.0
48.573639712,1306.0
48.599900277,1287.0
48.626160842,1284.0
48.652421407,1292.0
48.678681972,1219.0
48.704942537,1307.0
48.731203102,1284.0
48.757463667,1214.0
48.783724232,1278.0
48.809984797,1271.0
48.836245362,1288.0
48.862505927,1257.0
48.888766492,1243.0
48.915027057,1253.0
48.941287622,1195.0
48.967548187,1262.0
48.993808752,1293.0
49.020069317,1265.0
49.046329882,1297.0
49.072590447,1249.0
49.098851012,1283.0
49.125111577,1262.0
49.151372142,1255.0
49.177632707,1284.0
49.203893272,1276.0
49.230153837,1259.0
49.256414402,1300.0
49.282674967,1274.0
49.308935532,1294.0
49.335196097,1310.0
49.361456662,1328.0
49.387717227,1272.0
49.413977792,1280.0
49.440238357,1275.0
49.466498922,1224.0
49.492759487,1253.0
49.519020052,1261.0
49.545280617,1162.0
49.571541182,1302.0
49.597801747,1273.0
49.624062312,1254.0
49.650322877,1271.0
49.676583442,1262.0
49.702844007,1272.0
49.729104572,1263.0
49.755365137,1249.0
49.781625702,1289.0
49.807886267,1287.0
49.834146832,1224.0
49.860407397,1267.0
49.886667962,1324.0
49.912928527,1283.0
49.939189092,1371.0
49.965449657,1414.0
49.991710222,1405.0
50.017970788,1389.0
50.044231353,1438.0
50.070491918,1316.0
50.096752483,1361.0
50.123013048,1389.0
50.149273613,1451.0
50.175534178,1330.0
50.201794743,1376.0
50.228055308,1360.0
50.254315873,1349.0
50.280576438,1293.0
50.306837003,1371.0
50.333097568,1381.0
50.359358133,1369.0
50.385618698,1344.0
50.411879263,1205.0
50.438139828,1299.0
50.464400393,1277.0
50.490660958,1335.0
50.516921523,1218.0
50.543182088,1317.0
50.569442653,1290.0
50.595703218,1280.0
50.621963783,1317.0
50.648224348,1303.0
50.674484913,1283.0
50.700745478,1357.0
50.727006043,1228.0
50.753266608,1284.0
50.779527173,1278.0
50.805787738,1368.0
50.832048303,1337.0
50.858308868,1267.0
50.884569433,1181.0
50.910829998,1269.0
50.937090563,1214.0
50.963351128,1239.0
50.989611693,1314.0
51.015872258,1291.0
51.042132823,1287.0
51.068393388,1291.0
51.094653953,1327.0
51.120914518,1215.0
51.147175083,1291.0
51.173435648,1165.0
51.199696213,1302.0
51.225956778,1337.0
51.252217343,1288.0
51.278477908,1246.0
51.304738473,1295.0
51.330999038,1303.0
51.357259603,1268.0
51.383520168,1328.0
51.409780733,1190.0
51.436041298,1256.0
51.462301863,1280.0
51.488562428,1193.0
51.514822993,1239.0
51.541083558,1211.0
51.567344123,1192.0
51.593604688,1310.0
51.619865253,1276.0
51.646125818,1299.0
51.672386383,1245.0
51.698646948,1320.0
51.724907513,1317.0
51.751168078,1162.0
51.777428643,1229.0
51.803689208,1332.0
51.829949773,1301.0
51.856210338,1302.0
51.882470903,1252.0
51.908731468,1341.0
51.934992033,1306.0
51.961252598,1282.0
51.987513163,1329.0
52.013773728,1352.0
52.040034293,1322.0
52.066294858,1304.0
52.092555423,1294.0
52.118815988,1300.0
52.145076553,1335.0
52.171337118,1295.0
52.197597683,1265.0
52.223858248,1312.0
52.250118813,1322.0
52.276379378,1323.0
52.302639943,1385.0
52.328900508,1501.0
52.355161073,1547.0
52.381421638,1760.0
52.407682203,1873.0
52.433942768,1847.0
52.460203333,1792.0
52.486463898,1662.0
52.512724463,1585.0
52.538985028,1596.0
52.565245593,1559.0
52.591506158,1542.0
52.617766723,1485.0
52.644027288,1309.0
52.670287853,1289.0
52.696548418,1298.0
52.722808983,1278.0
52.749069548,1275.0
52.775330113,1374.0
52.801590678,1255.0
52.827851243,1358.0
52.854111808,1245.0
52.880372373,1281.0
52.906632938,1293.0
52.932893503,1256.0
52.959154068,1275.0
52.985414633,1238.0
53.011675198,1228.0
53.037935763,1196.0
53.064196328,1270.0
53.090456893,1218.0
53.116717458,1232.0
53.142978023,1226.0
53.169238588,1227.0
53.195499153,1246.0
53.221759719,1303.0
53.248020284,1243.0
53.274280849,1269.0
53.300541414,1239.0
53.326801979,1320.0
53.353062544,1238.0
53.379323109,1237.0
53.405583674,1312.0
53.431844239,1221.0
53.458104804,1196.0
53.484365369,1265.0
53.510625934,1242.0
53.536886499,1249.0
53.563147064,1269.0
53.589407629,1215.0
53.615668194,1223.0
53.641928759,1274.0
53.668189324,1231.0
53.694449889,1281.0
53.720710454,1272.0
53.746971019,1228.0
53.773231584,1242.0
53.799492149,1273.0
53.825752714,1228.0
53.852013279,1220.0
53.878273844,1260.0
53.904534409,1272.0
53.930794974,1257.0
53.957055539,1286.0
53.983316104,1262.0
54.009576669,1244.0
54.035837234,1242.0
54.062097799,1214.0
54.088358364,1200.0
54.114618929,1332.0
54.140879494,1249.0
54.167140059,1226.0
54.193400624,1261.0
54.219661189,1261.0
54.245921754,1265.0
54.272182319,1347.0
54.298442884,1449.0
54.324703449,1329.0
54.350964014,1418.0
54.377224579,1448.0
54.403485144,1586.0
54.429745709,1532.0
54.456006274,1425.0
54.482266839,1329.0
54.508527404,1357.0
54.534787969,1483.0
54.561048534,1399.0
54.587309099,1338.0
54.613569664,1430.0
54.639830229,1331.0
54.666090794,1241.0
54.692351359,1270.0
54.718611924,1254.0
54.744872489,1296.0
54.771133054,1303.0
54.797393619,1228.0
54.823654184,1301.0
54.849914749,1289.0
54.876175314,1210.0
54.902435879,1255.0
54.928696444,1252.0
54.954957009,1271.0
54.981217574,1243.0
55.007478139,1321.0
55.033738704,1275.0
55.059999269,1391.0
55.086259834,1327.0
55.112520399,1367.0
55.138780964,1306.0
55.165041529,1344.0
55.191302094,1262.0
55.217562659,1370.0
55.243823224,1321.0
55.270083789,1283.0
55.296344354,1282.0
55.322604919,1287.0
55.348865484,1221.0
55.375126049,1283.0
55.401386614,1219.0
55.427647179,1228.0
55.453907744,1244.0
55.480168309,1221.0
55.506428874,1284.0
55.532689439,1306.0
55.558950004,1260.0
55.585210569,1225.0
55.611471134,1237.0
55.637731699,1297.0
55.663992264,1333.0
55.690252829,1273.0
55.716513394,1262.0
55.742773959,1298.0
55.769034524,1297.0
55.795295089,1301.0
55.821555654,1261.0
55.847816219,1304.0
55.874076784,1283.0
55.900337349,1247.0
55.926597914,1320.0
55.952858479,1271.0
55.979119044,1357.0
56.005379609,1285.0
56.031640174,1340.0
56.057900739,1318.0
56.084161304,1352.0
56.110421869,1357.0
56.136682434,1345.0
56.162942999,1376.0
56.189203564,1319.0
56.215464129,1310.0
56.241724694,1310.0
56.267985259,1303.0
56.294245824,1375.0
56.320506389,1243.0
56.346766954,1345.0
56.373027519,1338.0
56.399288084,1403.0
56.425548650,1326.0
56.451809215,1286.0
56.478069780,1310.0
56.504330345,1314.0
56.530590910,1353.0
56.556851475,1309.0
56.583112040,1305.0
56.609372605,1334.0
56.635633170,1308.0
56.661893735,1354.0
56.688154300,1412.0
56.714414865,1463.0
56.740675430,1377.0
56.766935995,1356.0
56.793196560,1445.0
56.819457125,1324.0
56.845717690,1309.0
56.871978255,1349.0
56.898238820,1367.0
56.924499385,1345.0
56.950759950,1284.0
56.977020515,1303.0
57.003281080,1284.0
57.029541645,1320.0
57.055802210,1304.0
57.082062775,1266.0
57.108323340,1330.0
57.134583905,1255.0
57.160844470,1326.0
57.187105035,1362.0
57.213365600,1318.0
57.239626165,1332.0
57.265886730,1389.0
57.292147295,1360.0
57.318407860,1380.0
57.344668425,1436.0
57.370928990,1549.0
57.397189555,1465.0
57.423450120,1599.0
57.449710685,1604.0
57.475971250,1699.0
57.502231815,1697.0
57.528492380,1738.0
57.554752945,1852.0
57.581013510,1872.0
57.607274075,1986.0
57.633534640,2027.0
57.659795205,2186.0
57.686055770,2275.0
57.712316335,2700.0
57.738576900,3250.0
57.764837465,4423.0
57.791098030,6096.0
57.817358595,8520.0
57.843619160,10466.0
57.869879725,10731.0
57.896140290,8890.0
57.922400855,6715.0
57.948661420,5850.0
57.974921985,6016.0
58.001182550,6636.0
58.027443115,6199.0
58.053703680,5143.0
58.079964245,3769.0
58.106224810,2748.0
58.132485375,2281.0
58.158745940,1922.0
58.185006505,1722.0
58.211267070,1711.0
58.237527635,1640.0
58.263788200,1651.0
58.290048765,1531.0
58.316309330,1441.0
58.342569895,1367.0
58.368830460,1456.0
58.395091025,1439.0
58.421351590,1362.0
58.447612155,1356.0
58.473872720,1343.0
58.500133285,1288.0
58.526393850,1320.0
58.552654415,1316.0
58.578914980,1230.0
58.605175545,1317.0
58.631436110,1370.0
58.657696675,1354.0
58.683957240,1324.0
58.710217805,1318.0
58.736478370,1286.0
58.762738935,1252.0
58.788999500,1312.0
58.815260065,1367.0
58.841520630,1297.0
58.867781195,1290.0
58.894041760,1312.0
58.920302325,1286.0
58.946562890,1297.0
58.972823455,1306.0
58.999084020,1305.0
59.025344585,1272.0
59.051605150,1259.0
59.077865715,1317.0
59.104126280,1215.0
59.130386845,1219.0
59.156647410,1259.0
59.182907975,1264.0
59.209168540,1256.0
59.235429105,1239.0
59.261689670,1302.0
59.287950235,1237.0
59.314210800,1250.0
59.340471365,1204.0
59.366731930,1248.0
59.392992495,1266.0
59.419253060,1193.0
59.445513625,1251.0
59.471774190,1274.0
59.498034755,1290.0
59.524295320,1196.0
59.550555885,1250.0
59.576816450,1283.0
59.603077016,1293.0
59.629337581,1287.0
59.655598146,1217.0
59.681858711,1264.0
59.708119276,1333.0
59.734379841,1314.0
59.760640406,1237.0
59.786900971,1216.0
59.813161536,1223.0
59.839422101,1237.0
59.865682666,1238.0
59.891943231,1234.0
59.918203796,1291.0
59.944464361,1292.0
59.970724926,1276.0
59.996985491,1333.0
60.023246056,1284.0
60.049506621,1301.0
60.075767186,1283.0
60.102027751,1292.0
60.128288316,1272.0
60.154548881,1301.0
60.180809446,1326.0
60.207070011,1251.0
60.233330576,1216.0
60.259591141,1217.0
60.285851706,1258.0
60.312112271,1267.0
60.338372836,1210.0
60.364633401,1247.0
60.390893966,1400.0
60.417154531,1295.0
60.443415096,1245.0
60.469675661,1279.0
60.495936226,1206.0
60.522196791,1208.0
60.548457356,1268.0
60.574717921,1270.0
60.600978486,1260.0
60.627239051,1244.0
60.653499616,1285.0
60.679760181,1234.0
60.706020746,1285.0
60.732281311,1256.0
60.758541876,1292.0
60.784802441,1298.0
60.811063006,1269.0
60.837323571,1275.0
60.863584136,1239.0
60.889844701,1216.0
60.916105266,1242.0
60.942365831,1328.0
60.968626396,1243.0
60.994886961,1194.0
61.021147526,1173.0
61.047408091,1206.0
61.073668656,1240.0
61.099929221,1249.0
61.126189786,1244.0
61.152450351,1239.0
61.178710916,1267.0
61.204971481,1258.0
61.231232046,1292.0
61.257492611,1176.0
61.283753176,1207.0
61.310013741,1242.0
61.336274306,1240.0
61.362534871,1190.0
61.388795436,1266.0
61.415056001,1250.0
61.441316566,1242.0
61.467577131,1302.0
61.493837696,1240.0
61.520098261,1194.0
61.546358826,1217.0
61.572619391,1238.0
61.598879956,1236.0
61.625140521,1249.0
61.651401086,1190.0
61.677661651,1239.0
61.703922216,1238.0
61.730182781,1204.0
61.756443346,1207.0
61.782703911,1277.0
61.808964476,1218.0
61.835225041,1265.0
61.861485606,1243.0
61.887746171,1257.0
61.914006736,1234.0
61.940267301,1226.0
61.966527866,1294.0
61.992788431,1199.0
62.019048996,1260.0
62.045309561,1206.0
62.071570126,1278.0
62.097830691,1209.0
62.124091256,1250.0
62.150351821,1257.0
62.176612386,1196.0
62.202872951,1194.0
62.229133516,1237.0
62.255394081,1278.0
62.281654646,1224.0
62.307915211,1224.0
62.334175776,1278.0
62.360436341,1219.0
62.386696906,1264.0
62.412957471,1178.0
62.439218036,1259.0
62.465478601,1270.0
62.491739166,1238.0
62.517999731,1222.0
62.544260296,1254.0
62.570520861,1229.0
62.596781426,1232.0
62.623041991,1265.0
62.649302556,1289.0
62.675563121,1269.0
62.701823686,1202.0
62.728084251,1243.0
62.754344816,1278.0
62.780605381,1265.0
62.806865947,1249.0
62.833126512,1262.0
62.859387077,1267.0
62.885647642,1315.0
62.911908207,1288.0
62.938168772,1287.0
62.964429337,1275.0
62.990689902,1282.0
63.016950467,1273.0
63.043211032,1280.0
63.069471597,1335.0
63.095732162,1222.0
63.121992727,1252.0
63.148253292,1206.0
63.174513857,1180.0
63.200774422,1177.0
63.227034987,1239.0
63.253295552,1216.0
63.279556117,1229.0
63.305816682,1162.0
63.332077247,1168.0
63.358337812,1227.0
63.384598377,1271.0
63.410858942,1204.0
63.437119507,1228.0
63.463380072,1186.0
63.489640637,1221.0
63.515901202,1174.0
63.542161767,1215.0
63.568422332,1302.0
63.594682897,1296.0
63.620943462,1186.0
63.647204027,1258.0
63.673464592,1181.0
63.699725157,1183.0
63.725985722,1192.0
63.752246287,1191.0
63.778506852,1165.0
63.804767417,1222.0
63.831027982,1294.0
63.857288547,1229.0
63.883549112,1292.0
63.909809677,1253.0
63.936070242,1210.0
63.962330807,1275.0
63.988591372,1254.0
64.014851937,1289.0
64.041112502,1272.0
64.067373067,1248.0
64.093633632,1202.0
64.119894197,1316.0
64.146154762,1311.0
64.172415327,1252.0
64.198675892,1275.0
64.224936457,1336.0
64.251197022,1240.0
64.277457587,1274.0
64.303718152,1317.0
64.329978717,1372.0
64.356239282,1235.0
64.382499847,1265.0
64.408760412,1267.0
64.435020977,1177.0
64.461281542,1233.0
64.487542107,1309.0
64.513802672,1208.0
64.540063237,1232.0
64.566323802,1313.0
64.592584367,1229.0
64.618844932,1228.0
64.645105497,1173.0
64.671366062,1242.0
64.697626627,1242.0
64.723887192,1299.0
64.750147757,1262.0
64.776408322,1219.0
64.802668887,1240.0
64.828929452,1307.0
64.855190017,1222.0
64.881450582,1213.0
64.907711147,1227.0
64.933971712,1200.0
64.960232277,1233.0
64.986492842,1248.0
65.012753407,1341.0
65.039013972,1284.0
65.065274537,1301.0
65.091535102,1219.0
65.117795667,1279.0
65.144056232,1296.0
65.170316797,1314.0
65.196577362,1335.0
65.222837927,1270.0
65.249098492,1195.0
65.275359057,1213.0
65.301619622,1334.0
65.327880187,1298.0
65.354140752,1319.0
65.380401317,1260.0
65.406661882,1244.0
65.432922447,1325.0
65.459183012,1264.0
65.485443577,1362.0
65.511704142,1303.0
65.537964707,1319.0
65.564225272,1271.0
65.590485837,1323.0
65.616746402,1341.0
65.643006967,1399.0
65.669267532,1276.0
65.695528097,1211.0
65.721788662,1255.0
65.748049227,1272.0
65.774309792,1222.0
65.800570357,1318.0
65.826830922,1240.0
65.853091487,1251.0
65.879352052,1278.0
65.905612617,1315.0
65.931873182,1268.0
65.958133747,1299.0
65.984394312,1232.0
66.010654878,1241.0
66.036915443,1280.0
66.063176008,1244.0
66.089436573,1248.0
66.115697138,1225.0
66.141957703,1255.0
66.168218268,1277.0
66.194478833,1268.0
66.220739398,1270.0
66.246999963,1240.0
66.273260528,1291.0
66.299521093,1221.0
66.325781658,1182.0
66.352042223,1258.0
66.378302788,1240.0
66.404563353,1262.0
66.430823918,1343.0
66.457084483,1266.0
66.483345048,1281.0
66.509605613,1301.0
66.535866178,1179.0
66.562126743,1207.0
66.588387308,1290.0
66.614647873,1254.0
66.640908438,1214.0
66.667169003,1237.0
66.693429568,1339.0
66.719690133,1219.0
66.745950698,1272.0
66.772211263,1205.0
66.798471828,1279.0
66.824732393,1242.0
66.850992958,1176.0
66.877253523,1243.0
66.903514088,1209.0
66.929774653,1266.0
66.956035218,1245.0
66.982295783,1265.0
67.008556348,1303.0
67.034816913,1181.0
67.061077478,1256.0
67.087338043,1211.0
67.113598608,1304.0
67.139859173,1283.0
67.166119738,1212.0
67.192380303,1269.0
67.218640868,1269.0
67.244901433,1239.0
67.271161998,1294.0
67.297422563,1248.0
67.323683128,1346.0
67.349943693,1314.0
67.376204258,1333.0
67.402464823,1366.0
67.428725388,1289.0
67.454985953,1303.0
67.481246518,1343.0
67.507507083,1395.0
67.533767648,1374.0
67.560028213,1468.0
67.586288778,1439.0
67.612549343,1466.0
67.638809908,1591.0
67.665070473,1681.0
67.691331038,1640.0
67.717591603,1875.0
67.743852168,2057.0
67.770112733,2287.0
67.796373298,3017.0
67.822633863,3951.0
67.848894428,5294.0
67.875154993,6222.0
67.901415558,6360.0
67.927676123,5554.0
67.953936688,4234.0
67.980197253,3561.0
68.006457818,3349.0
68.032718383,3683.0
68.058978948,4006.0
68.085239513,4052.0
68.111500078,3780.0
68.137760643,3034.0
68.164021208,2423.0
68.190281773,2012.0
68.216542338,1808.0
68.242802903,1622.0
68.269063468,1540.0
68.295324033,1496.0
68.321584598,1420.0
68.347845163,1394.0
68.374105728,1375.0
68.400366293,1304.0
68.426626858,1325.0
68.452887423,1339.0
68.479147988,1358.0
68.505408553,1253.0
68.531669118,1331.0
68.557929683,1220.0
68.584190248,1262.0
68.610450813,1250.0
68.636711378,1308.0
68.662971943,1285.0
68.689232508,1231.0
68.715493073,1316.0
68.741753638,1212.0
68.768014203,1246.0
68.794274768,1268.0
68.820535333,1268.0
68.846795898,1340.0
68.873056463,1273.0
68.899317028,1212.0
68.925577593,1205.0
68.951838158,1218.0
68.978098723,1297.0
69.004359288,1260.0
69.030619853,1305.0
69.056880418,1274.0
69.083140983,1313.0
69.109401548,1320.0
69.135662113,1336.0
69.161922678,1244.0
69.188183243,1239.0
69.214443809,1299.0
69.240704374,1242.0
69.266964939,1249.0
69.293225504,1269.0
69.319486069,1252.0
69.345746634,1259.0
69.372007199,1179.0
69.398267764,1247.0
69.424528329,1233.0
69.450788894,1285.0
69.477049459,1222.0
69.503310024,1260.0
69.529570589,1243.0
69.555831154,1215.0
69.582091719,1216.0
69.608352284,1229.0
69.634612849,1264.0
69.660873414,1229.0
69.687133979,1187.0
69.713394544,1285.0
69.739655109,1204.0
69.765915674,1238.0
69.792176239,1221.0
69.818436804,1301.0
69.844697369,1288.0
69.870957934,1213.0
69.897218499,1317.0
69.923479064,1297.0
69.949739629,1309.0
69.976000194,1281.0
70.002260759,1253.0
70.028521324,1280.0
70.054781889,1199.0
70.081042454,1212.0
70.107303019,1249.0
70.133563584,1220.0
70.159824149,1316.0
70.186084714,1175.0
70.212345279,1253.0
70.238605844,1203.0
70.264866409,1309.0
70.291126974,1195.0
70.317387539,1230.0
70.343648104,1270.0
70.369908669,1258.0
70.396169234,1264.0
70.422429799,1290.0
70.448690364,1253.0
70.474950929,1274.0
70.501211494,1271.0
70.527472059,1187.0
70.553732624,1266.0
70.579993189,1242.0
70.606253754,1218.0
70.632514319,1238.0
70.658774884,1298.0
70.685035449,1205.0
70.711296014,1226.0
70.737556579,1223.0
70.763817144,1209.0
70.790077709,1227.0
70.816338274,1178.0
70.842598839,1178.0
70.868859404,1213.0
70.895119969,1155.0
70.921380534,1185.0
70.947641099,1268.0
70.973901664,1202.0
71.000162229,1251.0
71.026422794,1129.0
71.052683359,1241.0
71.078943924,1210.0
71.105204489,1172.0
71.131465054,1268.0
71.157725619,1228.0
71.183986184,1173.0
71.210246749,1156.0
71.236507314,1220.0
71.262767879,1225.0
71.289028444,1262.0
71.315289009,1205.0
71.341549574,1233.0
71.367810139,1210.0
71.394070704,1215.0
71.420331269,1231.0
71.446591834,1177.0
71.472852399,1260.0
71.499112964,1217.0
71.525373529,1272.0
71.551634094,1208.0
71.577894659,1275.0
71.604155224,1223.0
71.630415789,1246.0
71.656676354,1247.0
71.682936919,1235.0
71.709197484,1270.0
71.735458049,1218.0
71.761718614,1220.0
71.787979179,1198.0
71.814239744,1159.0
71.840500309,1293.0
71.866760874,1237.0
71.893021439,1197.0
71.919282004,1277.0
71.945542569,1268.0
71.971803134,1271.0
71.998063699,1275.0
72.024324264,1207.0
72.050584829,1237.0
72.076845394,1226.0
72.103105959,1264.0
72.129366524,1273.0
72.155627089,1169.0
72.181887654,1334.0
72.208148219,1289.0
72.234408784,1292.0
72.260669349,1260.0
72.286929914,1289.0
72.313190479,1239.0
72.339451044,1194.0
72.365711609,1267.0
72.391972174,1247.0
72.418232740,1225.0
72.444493305,1269.0
72.470753870,1294.0
72.497014435,1262.0
72.523275000,1364.0
72.549535565,1362.0
72.575796130,1419.0
72.602056695,1526.0
72.628317260,1528.0
72.654577825,1528.0
72.680838390,1443.0
72.707098955,1379.0
72.733359520,1339.0
72.759620085,1354.0
72.785880650,1304.0
72.812141215,1384.0
72.838401780,1339.0
72.864662345,1346.0
72.890922910,1353.0
72.917183475,1302.0
72.943444040,1317.0
72.969704605,1264.0
72.995965170,1228.0
73.022225735,1183.0
73.048486300,1214.0
73.074746865,1271.0
73.101007430,1199.0
73.127267995,1273.0
73.153528560,1222.0
73.179789125,1251.0
73.206049690,1153.0
73.232310255,1275.0
73.258570820,1206.0
73.284831385,1238.0
73.311091950,1249.0
73.337352515,1163.0
73.363613080,1242.0
73.389873645,1189.0
73.416134210,1185.0
73.442394775,1314.0
73.468655340,1270.0
73.494915905,1245.0
73.521176470,1259.0
73.547437035,1256.0
73.573697600,1227.0
73.599958165,1173.0
73.626218730,1223.0
73.652479295,1272.0
73.678739860,1219.0
73.705000425,1283.0
73.731260990,1194.0
73.757521555,1264.0
73.783782120,1259.0
73.810042685,1230.0
73.836303250,1305.0
73.862563815,1248.0
73.888824380,1248.0
73.915084945,1208.0
73.941345510,1228.0
73.967606075,1262.0
73.993866640,1272.0
74.020127205,1285.0
74.046387770,1178.0
74.072648335,1265.0
74.098908900,1265.0
74.125169465,1226.0
74.151430030,1255.0
74.177690595,1215.0
74.203951160,1208.0
74.230211725,1191.0
74.256472290,1204.0
74.282732855,1248.0
74.308993420,1271.0
74.335253985,1233.0
74.361514550,1213.0
74.387775115,1152.0
74.414035680,1214.0
74.440296245,1187.0
74.466556810,1248.0
74.492817375,1222.0
74.519077940,1261.0
74.545338505,1245.0
74.571599070,1208.0
74.597859635,1298.0
74.624120200,1214.0
74.650380765,1174.0
74.676641330,1217.0
74.702901895,1247.0
74.729162460,1311.0
74.755423025,1207.0
74.781683590,1240.0
74.807944155,1169.0
74.834204720,1292.0
74.860465285,1239.0
74.886725850,1307.0
74.912986415,1306.0
74.939246980,1299.0
74.965507545,1254.0
74.991768110,1236.0
75.018028675,1303.0
75.044289240,1263.0
75.070549805,1231.0
75.096810370,1278.0
75.123070935,1225.0
75.149331500,1286.0
75.175592065,1261.0
75.201852630,1262.0
75.228113195,1309.0
75.254373760,1263.0
75.280634325,1228.0
75.306894890,1257.0
75.333155455,1220.0
75.359416020,1174.0
75.385676585,1236.0
75.411937150,1230.0
75.438197715,1200.0
75.464458280,1274.0
75.490718845,1155.0
75.516979410,1206.0
75.543239975,1267.0
75.569500540,1278.0
75.595761106,1201.0
75.622021671,1231.0
75.648282236,1241.0
75.674542801,1161.0
75.700803366,1297.0
75.727063931,1298.0
75.753324496,1286.0
75.779585061,1349.0
75.805845626,1311.0
75.832106191,1285.0
75.858366756,1231.0
75.884627321,1189.0
75.910887886,1289.0
75.937148451,1274.0
75.963409016,1245.0
75.989669581,1217.0
76.015930146,1286.0
76.042190711,1173.0
76.068451276,1203.0
76.094711841,1264.0
76.120972406,1278.0
76.147232971,1251.0
76.173493536,1262.0
76.199754101,1280.0
76.226014666,1326.0
76.252275231,1261.0
76.278535796,1239.0
76.304796361,1229.0
76.331056926,1240.0
76.357317491,1333.0
76.383578056,1230.0
76.409838621,1217.0
76.436099186,1245.0
76.462359751,1221.0
76.488620316,1242.0
76.514880881,1225.0
76.541141446,1243.0
76.567402011,1243.0
76.593662576,1263.0
76.619923141,1293.0
76.646183706,1247.0
76.672444271,1260.0
76.698704836,1233.0
76.724965401,1298.0
76.751225966,1274.0
76.777486531,1332.0
76.803747096,1342.0
76.830007661,1316.0
76.856268226,1283.0
76.882528791,1311.0
76.908789356,1289.0
76.935049921,1349.0
76.961310486,1436.0
76.987571051,1399.0
77.013831616,1541.0
77.040092181,1621.0
77.066352746,1640.0
77.092613311,1782.0
77.118873876,1973.0
77.145134441,2268.0
77.171395006,2800.0
77.197655571,3658.0
77.223916136,4331.0
77.250176701,4611.0
77.276437266,4057.0
77.302697831,3372.0
77.328958396,2663.0
77.355218961,2516.0
77.381479526,2356.0
77.407740091,2497.0
77.434000656,2720.0
77.460261221,3013.0
77.486521786,2859.0
77.512782351,2542.0
77.539042916,2195.0
77.565303481,1831.0
77.591564046,1711.0
77.617824611,1560.0
77.644085176,1472.0
77.670345741,1535.0
77.696606306,1429.0
77.722866871,1451.0
77.749127436,1361.0
77.775388001,1346.0
77.801648566,1299.0
77.827909131,1371.0
77.854169696,1293.0
77.880430261,1261.0
77.906690826,1287.0
77.932951391,1339.0
77.959211956,1377.0
77.985472521,1324.0
78.011733086,1256.0
78.037993651,1286.0
78.064254216,1212.0
78.090514781,1239.0
78.116775346,1211.0
78.143035911,1212.0
78.169296476,1250.0
78.195557041,1309.0
78.221817606,1291.0
78.248078171,1280.0
78.274338736,1230.0
78.300599301,1158.0
78.326859866,1258.0
78.353120431,1241.0
78.379380996,1241.0
78.405641561,1300.0
78.431902126,1275.0
78.458162691,1275.0
78.484423256,1201.0
78.510683821,1334.0
78.536944386,1203.0
78.563204951,1276.0
78.589465516,1212.0
78.615726081,1168.0
78.641986646,1217.0
78.668247211,1273.0
78.694507776,1183.0
78.720768341,1240.0
78.747028906,1189.0
78.773289471,1268.0
78.799550037,1257.0
78.825810602,1218.0
78.852071167,1196.0
78.878331732,1258.0
78.904592297,1255.0
78.930852862,1210.0
78.957113427,1193.0
78.983373992,1261.0
79.009634557,1242.0
79.035895122,1264.0
79.062155687,1206.0
79.088416252,1199.0
79.114676817,1212.0
79.140937382,1226.0
79.167197947,1226.0
79.193458512,1197.0
79.219719077,1239.0
79.245979642,1236.0
79.272240207,1278.0
79.298500772,1250.0
79.324761337,1178.0
79.351021902,1236.0
79.377282467,1203.0
79.403543032,1161.0
79.429803597,1226.0
79.456064162,1210.0
79.482324727,1140.0
79.508585292,1240.0
79.534845857,1180.0
79.561106422,1338.0
79.587366987,1266.0
79.613627552,1210.0
79.639888117,1173.0
79.666148682,1215.0
79.692409247,1181.0
79.718669812,1196.0
79.744930377,1216.0
79.771190942,1195.0
79.797451507,1171.0
79.823712072,1209.0
79.849972637,1293.0
79.876233202,1206.0
79.902493767,1303.0
79.928754332,1274.0
79.955014897,1177.0
79.981275462,1195.0
80.007536027,1199.0
80.033796592,1192.0
80.060057157,1162.0
80.086317722,1214.0
80.112578287,1210.0
80.138838852,1209.0
80.165099417,1150.0
80.191359982,1193.0
80.217620547,1275.0
80.243881112,1142.0
80.270141677,1197.0
80.296402242,1246.0
80.322662807,1242.0
80.348923372,1215.0
80.375183937,1219.0
80.401444502,1185.0
80.427705067,1227.0
80.453965632,1322.0
80.480226197,1200.0
80.506486762,1227.0
80.532747327,1219.0
80.559007892,1242.0
80.585268457,1215.0
80.611529022,1295.0
80.637789587,1211.0
80.664050152,1269.0
80.690310717,1197.0
80.716571282,1244.0
80.742831847,1245.0
80.769092412,1249.0
80.795352977,1213.0
80.821613542,1207.0
80.847874107,1181.0
80.874134672,1215.0
80.900395237,1220.0
80.926655802,1268.0
80.952916367,1183.0
80.979176932,1271.0
81.005437497,1300.0
81.031698062,1287.0
81.057958627,1177.0
81.084219192,1171.0
81.110479757,1155.0
81.136740322,1216.0
81.163000887,1210.0
81.189261452,1214.0
81.215522017,1231.0
81.241782582,1284.0
81.268043147,1204.0
81.294303712,1197.0
81.320564277,1179.0
81.346824842,1267.0
81.373085407,1296.0
81.399345972,1247.0
81.425606537,1247.0
81.451867102,1240.0
81.478127667,1277.0
81.504388232,1228.0
81.530648797,1251.0
81.556909362,1267.0
81.583169927,1330.0
81.609430492,1371.0
81.635691057,1385.0
81.661951622,1407.0
81.688212187,1540.0
81.714472752,1816.0
81.740733317,2099.0
81.766993882,2213.0
81.793254447,2244.0
81.819515012,2049.0
81.845775577,1897.0
81.872036142,1665.0
81.898296707,1511.0
81.924557272,1461.0
81.950817837,1646.0
81.977078402,1706.0
82.003338968,1748.0
82.029599533,1860.0
82.055860098,1699.0
82.082120663,1565.0
82.108381228,1564.0
82.134641793,1438.0
82.160902358,1316.0
82.187162923,1247.0
82.213423488,1402.0
82.239684053,1249.0
82.265944618,1293.0
82.292205183,1281.0
82.318465748,1287.0
82.344726313,1184.0
82.370986878,1267.0
82.397247443,1318.0
82.423508008,1285.0
82.449768573,1267.0
82.476029138,1246.0
82.502289703,1146.0
82.528550268,1244.0
82.554810833,1263.0
82.581071398,1296.0
82.607331963,1220.0
82.633592528,1240.0
82.659853093,1225.0
82.686113658,1292.0
82.712374223,1243.0
82.738634788,1254.0
82.764895353,1277.0
82.791155918,1220.0
82.817416483,1209.0
82.843677048,1317.0
82.869937613,1211.0
82.896198178,1256.0
82.922458743,1253.0
82.948719308,1291.0
82.974979873,1219.0
83.001240438,1211.0
83.027501003,1286.0
83.053761568,1243.0
83.080022133,1210.0
83.106282698,1225.0
83.132543263,1233.0
83.158803828,1198.0
83.185064393,1280.0
83.211324958,1208.0
83.237585523,1204.0
83.263846088,1221.0
83.290106653,1238.0
83.316367218,1235.0
83.342627783,1287.0
83.368888348,1192.0
83.395148913,1221.0
83.421409478,1204.0
83.447670043,1210.0
83.473930608,1268.0
83.500191173,1270.0
83.526451738,1301.0
83.552712303,1270.0
83.578972868,1269.0
83.605233433,1228.0
83.631493998,1223.0
83.657754563,1287.0
83.684015128,1188.0
83.710275693,1224.0
83.736536258,1226.0
83.762796823,1199.0
83.789057388,1216.0
83.815317953,1242.0
83.841578518,1251.0
83.867839083,1260.0
83.894099648,1282.0
83.920360213,1254.0
83.946620778,1245.0
83.972881343,1170.0
83.999141908,1212.0
84.025402473,1284.0
84.051663038,1217.0
84.077923603,1231.0
84.104184168,1218.0
84.130444733,1209.0
84.156705298,1239.0
84.182965863,1254.0
84.209226428,1326.0
84.235486993,1207.0
84.261747558,1291.0
84.288008123,1232.0
84.314268688,1270.0
84.340529253,1286.0
84.366789818,1279.0
84.393050383,1251.0
84.419310948,1277.0
84.445571513,1180.0
84.471832078,1303.0
84.498092643,1224.0
84.524353208,1224.0
84.550613773,1201.0
84.576874338,1276.0
84.603134903,1277.0
84.629395468,1305.0
84.655656033,1253.0
84.681916598,1266.0
84.708177163,1246.0
84.734437728,1327.0
84.760698293,1298.0
84.786958858,1275.0
84.813219423,1307.0
84.839479988,1302.0
84.865740553,1315.0
84.892001118,1184.0
84.918261683,1292.0
84.944522248,1176.0
84.970782813,1251.0
84.997043378,1272.0
85.023303943,1243.0
85.049564508,1238.0
85.075825073,1225.0
85.102085638,1226.0
85.128346203,1208.0
85.154606768,1206.0
85.180867333,1249.0
85.207127899,1244.0
85.233388464,1222.0
85.259649029,1188.0
85.285909594,1223.0
85.312170159,1260.0
85.338430724,1217.0
85.364691289,1239.0
85.390951854,1276.0
85.417212419,1225.0
85.443472984,1231.0
85.469733549,1263.0
85.495994114,1257.0
85.522254679,1183.0
85.548515244,1170.0
85.574775809,1175.0
85.601036374,1191.0
85.627296939,1224.0
85.653557504,1247.0
85.679818069,1300.0
85.706078634,1256.0
85.732339199,1298.0
85.758599764,1253.0
85.784860329,1240.0
85.811120894,1287.0
85.837381459,1276.0
85.863642024,1267.0
85.889902589,1231.0
85.916163154,1327.0
85.942423719,1270.0
85.968684284,1326.0
85.994944849,1260.0
86.021205414,1341.0
86.047465979,1320.0
86.073726544,1403.0
86.099987109,1448.0
86.126247674,1593.0
86.152508239,1685.0
86.178768804,1818.0
86.205029369,2142.0
86.231289934,2426.0
86.257550499,2753.0
86.283811064,2538.0
86.310071629,2215.0
86.336332194,1934.0
86.362592759,1784.0
86.388853324,1636.0
86.415113889,1625.0
86.441374454,1690.0
86.467635019,1815.0
86.493895584,1865.0
86.520156149,1957.0
86.546416714,1930.0
86.572677279,1761.0
86.598937844,1620.0
86.625198409,1502.0
86.651458974,1407.0
86.677719539,1326.0
86.703980104,1375.0
86.730240669,1309.0
86.756501234,1309.0
86.782761799,1266.0
86.809022364,1182.0
86.835282929,1171.0
86.861543494,1261.0
86.887804059,1211.0
86.914064624,1240.0
86.940325189,1197.0
86.966585754,1201.0
86.992846319,1214.0
87.019106884,1225.0
87.045367449,1179.0
87.071628014,1239.0
87.097888579,1198.0
87.124149144,1312.0
87.150409709,1209.0
87.176670274,1190.0
87.202930839,1137.0
87.229191404,1202.0
87.255451969,1207.0
87.281712534,1231.0
87.307973099,1224.0
87.334233664,1347.0
87.360494229,1170.0
87.386754794,1169.0
87.413015359,1253.0
87.439275924,1302.0
87.465536489,1158.0
87.491797054,1293.0
87.518057619,1227.0
87.544318184,1275.0
87.570578749,1242.0
87.596839314,1218.0
87.623099879,1277.0
87.649360444,1208.0
87.675621009,1232.0
87.701881574,1262.0
87.728142139,1219.0
87.754402704,1253.0
87.780663269,1199.0
87.806923834,1238.0
87.833184399,1199.0
87.859444964,1161.0
87.885705529,1197.0
87.911966094,1260.0
87.938226659,1196.0
87.964487224,1245.0
87.990747789,1161.0
88.017008354,1239.0
88.043268919,1258.0
88.069529484,1258.0
88.095790049,1209.0
88.122050614,1202.0
88.148311179,1180.0
88.174571744,1258.0
88.200832309,1210.0
88.227092874,1199.0
88.253353439,1204.0
88.279614004,1248.0
88.305874569,1265.0
88.332135134,1232.0
88.358395699,1241.0
88.384656264,1184.0
88.410916830,1179.0
88.437177395,1237.0
88.463437960,1223.0
88.489698525,1142.0
88.515959090,1212.0
88.542219655,1168.0
88.568480220,1263.0
88.594740785,1223.0
88.621001350,1225.0
88.647261915,1247.0
88.673522480,1236.0
88.699783045,1190.0
88.726043610,1199.0
88.752304175,1267.0
88.778564740,1229.0
88.804825305,1179.0
88.831085870,1204.0
88.857346435,1266.0
88.883607000,1197.0
88.909867565,1247.0
88.936128130,1196.0
88.962388695,1162.0
88.988649260,1241.0
89.014909825,1187.0
89.041170390,1276.0
89.067430955,1172.0
89.093691520,1187.0
89.119952085,1228.0
89.146212650,1208.0
89.172473215,1156.0
89.198733780,1211.0
89.224994345,1241.0
89.251254910,1229.0
89.277515475,1215.0
89.303776040,1174.0
89.330036605,1189.0
89.356297170,1228.0
89.382557735,1155.0
89.408818300,1191.0
89.435078865,1280.0
89.461339430,1211.0
89.487599995,1283.0
89.513860560,1165.0
89.540121125,1230.0
89.566381690,1189.0
89.592642255,1205.0
89.618902820,1170.0
89.645163385,1234.0
89.671423950,1232.0
89.697684515,1279.0
89.723945080,1219.0
89.750205645,1115.0
89.776466210,1248.0
89.802726775,1124.0
89.828987340,1186.0
89.855247905,1204.0
89.881508470,1217.0
89.907769035,1247.0
89.934029600,1228.0
89.960290165,1188.0
89.986550730,1216.0
